#PicoHarp 300  Histogram Data			03/27/2023 01:01:52 PM
#channels per curve
15625
#display curve no.
0	
#memory block no.
0	
#ns/channel
0.1280	
#counts
0	
1	
0	
1	
1	
2	
1	
1	
0	
0	
1	
1	
0	
2	
1	
1	
0	
2	
1	
0	
0	
0	
2	
2	
0	
0	
1	
0	
1	
0	
0	
0	
1	
0	
1	
1	
3	
0	
1	
2	
0	
0	
3	
0	
0	
0	
2	
1	
0	
2	
0	
1	
0	
4	
1	
0	
2	
2	
1	
0	
2	
0	
0	
1	
4	
7	
7	
16	
33	
77	
167	
295	
401	
559	
688	
819	
892	
930	
1000	
889	
955	
902	
888	
894	
837	
862	
846	
812	
815	
768	
822	
745	
771	
683	
793	
754	
766	
662	
702	
703	
681	
690	
661	
733	
672	
649	
567	
592	
594	
600	
620	
560	
592	
609	
615	
519	
578	
547	
543	
567	
603	
554	
582	
532	
550	
510	
539	
547	
505	
523	
504	
567	
510	
488	
526	
473	
496	
512	
455	
469	
465	
474	
502	
439	
460	
450	
511	
464	
430	
498	
464	
451	
422	
425	
402	
442	
391	
436	
406	
420	
401	
379	
414	
381	
399	
387	
391	
383	
443	
416	
400	
409	
395	
391	
384	
367	
352	
373	
406	
367	
400	
326	
391	
353	
398	
355	
328	
338	
328	
319	
367	
329	
324	
318	
331	
345	
356	
318	
341	
351	
339	
312	
350	
328	
337	
288	
325	
317	
324	
289	
335	
320	
321	
294	
300	
303	
270	
307	
301	
287	
270	
276	
305	
279	
320	
290	
287	
282	
286	
276	
302	
268	
265	
284	
253	
245	
260	
276	
272	
262	
307	
282	
314	
272	
255	
263	
283	
257	
255	
242	
256	
279	
268	
261	
244	
273	
256	
245	
227	
263	
252	
234	
242	
264	
232	
236	
232	
245	
232	
226	
205	
246	
254	
228	
229	
235	
222	
248	
232	
233	
239	
242	
234	
215	
218	
218	
218	
220	
206	
198	
242	
220	
216	
233	
221	
196	
190	
206	
216	
237	
207	
210	
195	
195	
203	
228	
188	
183	
224	
194	
196	
185	
189	
197	
206	
185	
175	
197	
196	
199	
187	
187	
184	
201	
166	
188	
192	
177	
184	
171	
167	
167	
180	
183	
183	
206	
177	
163	
166	
189	
186	
175	
195	
195	
157	
161	
184	
185	
182	
156	
174	
133	
169	
158	
166	
152	
153	
164	
165	
158	
151	
180	
150	
140	
192	
155	
157	
162	
150	
166	
136	
169	
172	
158	
166	
148	
132	
144	
163	
171	
159	
158	
140	
139	
141	
117	
150	
147	
157	
134	
140	
156	
146	
157	
151	
129	
134	
130	
136	
138	
134	
140	
130	
131	
141	
108	
137	
129	
158	
151	
147	
130	
137	
143	
134	
130	
138	
140	
137	
135	
139	
126	
124	
128	
136	
125	
138	
145	
126	
125	
113	
134	
118	
125	
117	
132	
131	
131	
120	
130	
142	
119	
129	
120	
131	
96	
128	
122	
117	
124	
110	
134	
115	
114	
109	
116	
119	
116	
118	
108	
128	
104	
129	
106	
122	
124	
110	
108	
95	
108	
104	
104	
123	
124	
120	
107	
103	
103	
95	
95	
101	
94	
118	
102	
113	
100	
118	
103	
116	
123	
114	
103	
96	
114	
115	
93	
110	
117	
110	
100	
104	
96	
100	
112	
105	
99	
96	
84	
85	
84	
102	
92	
117	
86	
87	
83	
101	
98	
96	
88	
106	
80	
91	
107	
79	
92	
84	
87	
109	
88	
84	
63	
98	
89	
107	
93	
106	
89	
70	
91	
92	
77	
80	
98	
96	
102	
86	
93	
95	
73	
86	
89	
103	
90	
81	
101	
97	
83	
79	
87	
78	
86	
84	
80	
86	
95	
86	
80	
77	
81	
84	
81	
86	
85	
82	
86	
94	
67	
79	
77	
75	
91	
89	
72	
78	
72	
85	
77	
79	
90	
81	
87	
78	
82	
80	
68	
84	
77	
87	
61	
86	
83	
68	
81	
91	
77	
83	
61	
85	
69	
75	
79	
65	
67	
76	
70	
59	
65	
91	
65	
86	
64	
75	
78	
55	
81	
78	
77	
62	
77	
76	
70	
72	
68	
77	
88	
73	
74	
62	
69	
76	
63	
65	
80	
61	
66	
59	
69	
61	
65	
66	
73	
59	
77	
60	
60	
86	
62	
79	
63	
54	
66	
67	
59	
68	
72	
74	
64	
71	
68	
60	
71	
66	
77	
60	
50	
62	
64	
44	
52	
70	
63	
52	
62	
72	
56	
59	
56	
58	
60	
54	
57	
74	
62	
70	
47	
77	
78	
51	
59	
59	
56	
51	
53	
54	
62	
42	
65	
53	
66	
64	
57	
62	
39	
62	
63	
56	
48	
66	
61	
49	
49	
42	
57	
56	
52	
48	
62	
55	
61	
66	
49	
49	
47	
57	
42	
57	
71	
44	
46	
57	
54	
55	
53	
51	
65	
60	
54	
56	
63	
47	
42	
55	
56	
49	
56	
50	
53	
65	
56	
62	
51	
60	
54	
55	
55	
56	
44	
55	
49	
44	
47	
47	
58	
60	
56	
55	
45	
50	
55	
55	
45	
56	
43	
63	
42	
49	
44	
50	
50	
45	
49	
53	
52	
58	
47	
43	
52	
51	
43	
42	
50	
62	
43	
39	
42	
30	
44	
46	
46	
50	
52	
40	
40	
52	
45	
53	
50	
54	
56	
47	
39	
38	
58	
44	
54	
53	
37	
49	
48	
43	
52	
46	
46	
50	
45	
33	
55	
31	
53	
44	
42	
38	
38	
58	
36	
40	
43	
51	
54	
40	
43	
39	
35	
51	
40	
60	
48	
36	
42	
43	
46	
53	
38	
45	
57	
45	
49	
47	
51	
39	
40	
43	
33	
39	
42	
44	
40	
36	
41	
54	
39	
44	
32	
48	
45	
51	
37	
48	
37	
42	
36	
49	
45	
42	
43	
44	
36	
43	
39	
50	
41	
43	
46	
47	
38	
41	
36	
28	
41	
43	
43	
38	
30	
34	
43	
42	
35	
37	
34	
46	
24	
33	
34	
33	
32	
35	
46	
48	
44	
34	
43	
43	
48	
40	
31	
36	
44	
28	
46	
41	
36	
21	
36	
40	
32	
43	
32	
26	
36	
38	
38	
37	
34	
41	
44	
42	
28	
37	
37	
28	
38	
53	
33	
35	
40	
30	
37	
37	
29	
49	
44	
35	
27	
31	
36	
36	
24	
42	
30	
40	
20	
31	
28	
42	
34	
28	
38	
35	
33	
37	
36	
43	
37	
25	
40	
31	
34	
32	
48	
35	
32	
36	
36	
32	
34	
38	
24	
37	
27	
36	
28	
28	
31	
38	
29	
45	
29	
28	
20	
35	
19	
34	
30	
35	
39	
38	
37	
25	
39	
34	
18	
29	
41	
35	
33	
32	
38	
37	
39	
33	
40	
31	
31	
24	
28	
27	
21	
24	
29	
38	
29	
33	
26	
33	
24	
29	
32	
30	
29	
33	
31	
30	
26	
33	
27	
22	
33	
35	
23	
38	
31	
25	
29	
29	
30	
29	
34	
32	
36	
27	
27	
31	
24	
23	
27	
26	
30	
31	
40	
34	
31	
34	
24	
23	
21	
32	
27	
31	
24	
26	
28	
25	
32	
25	
31	
35	
32	
25	
27	
32	
26	
36	
23	
42	
31	
26	
34	
25	
30	
27	
31	
30	
38	
34	
30	
36	
34	
18	
22	
23	
26	
30	
21	
26	
30	
33	
26	
21	
34	
35	
21	
37	
26	
23	
30	
21	
27	
23	
21	
27	
18	
29	
31	
17	
29	
25	
16	
31	
27	
29	
35	
35	
33	
25	
20	
29	
25	
22	
36	
29	
27	
27	
22	
27	
26	
27	
31	
19	
38	
44	
26	
20	
21	
28	
27	
31	
29	
38	
23	
20	
20	
33	
21	
26	
27	
20	
15	
23	
27	
25	
24	
26	
23	
29	
15	
31	
27	
24	
24	
19	
23	
21	
17	
31	
34	
19	
26	
23	
25	
18	
22	
24	
31	
28	
28	
27	
21	
30	
28	
28	
11	
26	
33	
23	
30	
27	
31	
28	
23	
24	
19	
24	
29	
23	
22	
32	
22	
28	
20	
22	
20	
20	
30	
23	
22	
21	
25	
25	
24	
27	
28	
26	
13	
24	
19	
22	
27	
18	
25	
24	
31	
31	
22	
26	
24	
24	
24	
23	
26	
19	
29	
32	
16	
24	
30	
19	
27	
16	
23	
27	
20	
20	
17	
16	
28	
27	
28	
21	
22	
19	
22	
24	
19	
31	
24	
24	
31	
34	
18	
14	
16	
19	
22	
17	
19	
20	
19	
25	
29	
20	
29	
23	
22	
22	
19	
16	
25	
21	
15	
23	
21	
21	
25	
17	
28	
22	
24	
22	
28	
16	
14	
25	
28	
27	
25	
22	
25	
23	
22	
18	
23	
23	
19	
23	
24	
19	
16	
14	
25	
11	
21	
17	
26	
26	
15	
20	
23	
27	
14	
19	
25	
17	
15	
18	
23	
15	
23	
18	
26	
19	
30	
25	
19	
17	
20	
19	
25	
18	
21	
22	
22	
14	
26	
23	
26	
14	
24	
16	
20	
18	
14	
28	
18	
22	
19	
23	
18	
13	
15	
23	
23	
18	
12	
28	
27	
13	
24	
21	
15	
26	
24	
35	
18	
18	
19	
23	
23	
21	
24	
11	
20	
21	
12	
14	
20	
24	
18	
19	
18	
21	
21	
16	
20	
17	
18	
16	
19	
17	
19	
17	
19	
19	
15	
20	
16	
18	
21	
16	
18	
22	
17	
11	
19	
21	
19	
22	
17	
15	
18	
28	
23	
11	
12	
11	
17	
20	
16	
17	
15	
22	
13	
14	
21	
16	
15	
10	
5	
12	
22	
21	
16	
21	
22	
12	
9	
24	
20	
15	
22	
19	
24	
16	
15	
20	
25	
23	
15	
17	
20	
17	
9	
17	
17	
23	
9	
11	
15	
19	
18	
15	
23	
23	
11	
20	
17	
15	
22	
13	
10	
15	
24	
14	
23	
21	
11	
20	
18	
13	
21	
17	
17	
16	
19	
17	
23	
15	
13	
19	
15	
23	
14	
19	
18	
18	
20	
15	
20	
14	
14	
17	
10	
25	
12	
11	
11	
23	
12	
15	
21	
16	
14	
17	
16	
22	
17	
15	
13	
22	
16	
16	
21	
18	
14	
23	
19	
12	
9	
25	
12	
15	
17	
25	
17	
14	
23	
20	
11	
17	
13	
21	
16	
17	
16	
18	
14	
17	
21	
12	
23	
21	
17	
18	
9	
10	
18	
17	
17	
26	
17	
12	
21	
19	
19	
16	
22	
18	
15	
8	
14	
14	
16	
13	
17	
12	
19	
18	
17	
14	
12	
13	
18	
10	
16	
23	
15	
19	
21	
19	
4	
17	
20	
8	
13	
24	
18	
21	
8	
16	
18	
15	
14	
17	
11	
15	
16	
20	
14	
17	
10	
20	
13	
15	
14	
16	
15	
20	
17	
16	
19	
13	
17	
10	
19	
18	
19	
13	
10	
12	
14	
15	
17	
14	
12	
9	
11	
20	
19	
16	
16	
18	
16	
10	
19	
12	
14	
15	
6	
13	
20	
14	
5	
18	
18	
13	
10	
16	
21	
16	
7	
18	
7	
12	
19	
12	
15	
11	
14	
14	
10	
11	
20	
15	
13	
12	
24	
13	
16	
9	
11	
10	
11	
8	
18	
14	
11	
13	
13	
17	
17	
19	
12	
16	
15	
12	
13	
13	
12	
21	
15	
15	
12	
8	
11	
11	
11	
7	
9	
12	
6	
14	
18	
16	
13	
12	
15	
13	
14	
10	
8	
16	
11	
12	
16	
15	
9	
11	
10	
19	
19	
16	
18	
17	
16	
18	
8	
14	
21	
16	
16	
14	
12	
14	
15	
8	
12	
14	
16	
11	
9	
11	
10	
16	
14	
15	
17	
15	
7	
15	
13	
24	
12	
13	
14	
13	
19	
9	
18	
14	
23	
18	
15	
17	
13	
11	
10	
19	
11	
19	
12	
11	
21	
12	
10	
11	
6	
12	
13	
12	
14	
15	
15	
8	
13	
12	
16	
12	
13	
13	
9	
18	
17	
11	
15	
16	
14	
7	
15	
12	
10	
16	
12	
14	
10	
9	
5	
11	
8	
16	
14	
5	
18	
12	
9	
12	
19	
13	
10	
17	
12	
16	
18	
15	
12	
10	
10	
16	
7	
18	
10	
8	
9	
13	
21	
11	
17	
18	
11	
8	
17	
12	
8	
10	
13	
10	
9	
13	
9	
15	
13	
11	
12	
15	
20	
16	
10	
9	
13	
8	
18	
15	
11	
6	
11	
20	
16	
14	
12	
14	
11	
10	
10	
11	
8	
8	
14	
13	
9	
9	
13	
8	
14	
15	
16	
9	
10	
11	
9	
21	
11	
12	
11	
12	
5	
8	
10	
10	
10	
8	
5	
16	
14	
12	
11	
11	
11	
13	
12	
9	
14	
9	
12	
14	
14	
7	
13	
6	
9	
12	
15	
7	
12	
13	
13	
16	
15	
7	
11	
14	
16	
12	
5	
12	
9	
10	
8	
26	
10	
13	
9	
11	
14	
5	
9	
9	
16	
5	
10	
10	
16	
10	
16	
8	
11	
5	
9	
11	
18	
10	
6	
9	
17	
13	
9	
11	
9	
7	
16	
13	
12	
12	
11	
10	
10	
7	
9	
9	
7	
9	
7	
6	
14	
12	
9	
10	
10	
12	
9	
15	
8	
10	
10	
8	
11	
6	
11	
17	
13	
14	
16	
13	
17	
7	
14	
11	
18	
7	
11	
14	
19	
13	
11	
10	
5	
9	
10	
12	
9	
12	
10	
9	
14	
9	
10	
9	
10	
13	
8	
12	
10	
9	
11	
7	
9	
12	
19	
10	
15	
10	
8	
11	
15	
9	
15	
14	
9	
11	
10	
10	
12	
12	
14	
9	
11	
6	
11	
9	
6	
13	
13	
21	
7	
8	
13	
8	
13	
7	
10	
10	
5	
15	
10	
12	
9	
9	
12	
11	
9	
15	
10	
10	
11	
9	
11	
7	
8	
7	
9	
5	
13	
11	
11	
16	
12	
7	
13	
15	
10	
13	
4	
7	
11	
18	
14	
5	
14	
15	
12	
12	
8	
2	
11	
8	
8	
7	
7	
10	
9	
8	
8	
14	
12	
10	
16	
7	
17	
7	
7	
9	
7	
17	
9	
9	
10	
10	
10	
9	
6	
10	
10	
12	
12	
12	
9	
9	
9	
8	
5	
15	
6	
8	
6	
10	
6	
13	
9	
21	
11	
7	
13	
4	
10	
11	
14	
11	
9	
8	
11	
11	
9	
11	
7	
19	
11	
11	
9	
9	
10	
11	
12	
10	
11	
7	
10	
9	
9	
12	
11	
9	
12	
8	
9	
6	
5	
5	
8	
9	
9	
4	
13	
7	
16	
5	
6	
9	
5	
12	
11	
9	
6	
6	
7	
11	
5	
9	
12	
13	
9	
7	
10	
10	
14	
8	
18	
5	
7	
7	
10	
13	
10	
15	
11	
10	
7	
9	
14	
6	
9	
11	
8	
6	
9	
11	
11	
5	
11	
11	
15	
4	
11	
8	
7	
10	
10	
6	
10	
13	
8	
10	
9	
13	
9	
8	
9	
9	
6	
8	
8	
13	
9	
9	
9	
9	
3	
12	
8	
12	
6	
15	
9	
6	
11	
12	
12	
6	
8	
11	
10	
11	
8	
6	
3	
12	
13	
7	
8	
12	
10	
9	
8	
9	
11	
12	
8	
6	
10	
8	
12	
9	
15	
11	
4	
15	
10	
14	
10	
11	
8	
8	
11	
12	
13	
12	
12	
10	
9	
8	
11	
11	
7	
9	
7	
12	
7	
12	
9	
9	
6	
6	
4	
9	
9	
8	
8	
7	
12	
10	
2	
9	
6	
5	
9	
7	
7	
9	
13	
4	
11	
10	
6	
14	
13	
9	
15	
13	
10	
7	
2	
5	
10	
11	
8	
9	
11	
8	
10	
5	
8	
5	
9	
5	
9	
9	
7	
10	
7	
8	
7	
7	
3	
11	
8	
11	
7	
8	
9	
6	
9	
5	
11	
11	
9	
4	
6	
6	
11	
10	
7	
9	
8	
14	
10	
10	
6	
6	
12	
5	
6	
8	
6	
14	
8	
4	
7	
5	
4	
6	
9	
5	
8	
11	
6	
8	
7	
11	
7	
5	
6	
5	
6	
4	
12	
8	
7	
13	
6	
7	
11	
8	
7	
9	
7	
14	
7	
6	
7	
5	
5	
12	
5	
10	
5	
9	
8	
10	
11	
4	
13	
3	
11	
11	
6	
8	
10	
8	
8	
10	
6	
3	
9	
4	
2	
10	
6	
4	
4	
6	
7	
14	
9	
3	
7	
10	
9	
9	
8	
13	
4	
10	
14	
6	
6	
9	
8	
8	
8	
9	
9	
10	
7	
4	
11	
4	
7	
6	
13	
7	
7	
8	
6	
7	
11	
14	
2	
5	
8	
15	
6	
4	
5	
4	
10	
8	
8	
3	
7	
13	
5	
9	
5	
11	
6	
8	
8	
7	
4	
9	
9	
10	
8	
10	
11	
8	
7	
5	
6	
10	
5	
9	
10	
13	
6	
7	
7	
6	
6	
11	
12	
10	
10	
8	
3	
11	
4	
6	
7	
6	
1	
7	
7	
4	
6	
4	
8	
6	
12	
5	
12	
4	
8	
11	
5	
5	
13	
7	
4	
8	
6	
14	
4	
4	
2	
8	
5	
10	
7	
3	
10	
5	
7	
7	
9	
14	
3	
2	
14	
9	
9	
13	
7	
8	
7	
4	
8	
10	
7	
9	
7	
6	
4	
7	
11	
10	
6	
7	
8	
5	
6	
6	
12	
10	
6	
8	
8	
6	
7	
6	
9	
7	
3	
4	
5	
3	
4	
14	
6	
3	
5	
5	
5	
7	
7	
6	
8	
3	
10	
11	
6	
12	
6	
8	
6	
9	
10	
4	
11	
8	
2	
4	
7	
6	
5	
9	
8	
8	
7	
5	
9	
2	
9	
5	
2	
10	
7	
5	
4	
15	
4	
6	
5	
12	
10	
8	
6	
1	
6	
3	
9	
9	
9	
7	
6	
6	
6	
4	
7	
18	
6	
5	
10	
6	
4	
1	
10	
6	
9	
4	
5	
11	
5	
8	
5	
11	
7	
7	
5	
6	
4	
10	
6	
8	
9	
4	
5	
6	
11	
4	
6	
14	
4	
16	
7	
7	
12	
7	
4	
13	
4	
6	
9	
6	
8	
7	
6	
5	
7	
13	
3	
7	
6	
10	
7	
7	
3	
2	
6	
5	
5	
5	
4	
10	
6	
8	
2	
10	
6	
5	
8	
6	
8	
9	
6	
7	
8	
8	
3	
8	
9	
6	
9	
6	
8	
5	
3	
4	
6	
9	
4	
3	
10	
13	
6	
7	
3	
4	
6	
3	
8	
5	
11	
13	
6	
6	
6	
4	
8	
6	
5	
4	
5	
6	
4	
8	
6	
6	
5	
8	
4	
4	
7	
12	
11	
9	
5	
4	
4	
6	
9	
5	
7	
10	
4	
6	
5	
11	
3	
5	
6	
4	
3	
9	
6	
10	
11	
8	
6	
7	
9	
6	
8	
8	
14	
7	
7	
6	
8	
6	
9	
10	
3	
5	
8	
6	
7	
2	
7	
6	
3	
3	
7	
3	
4	
3	
6	
9	
3	
9	
9	
6	
6	
9	
9	
4	
2	
8	
5	
2	
12	
7	
8	
7	
8	
5	
5	
3	
3	
6	
7	
4	
3	
5	
4	
6	
7	
8	
7	
6	
8	
4	
6	
6	
7	
10	
7	
9	
5	
10	
7	
3	
4	
7	
11	
8	
8	
9	
11	
5	
8	
9	
8	
4	
7	
7	
6	
4	
7	
9	
3	
7	
9	
9	
4	
4	
7	
7	
6	
5	
5	
5	
7	
6	
6	
3	
6	
6	
5	
8	
6	
11	
6	
8	
11	
9	
5	
6	
7	
11	
3	
5	
8	
5	
8	
3	
4	
5	
4	
5	
4	
3	
4	
4	
7	
3	
8	
7	
5	
10	
7	
4	
2	
4	
7	
3	
7	
8	
4	
6	
2	
8	
8	
5	
9	
8	
5	
4	
6	
8	
8	
5	
6	
4	
3	
8	
7	
4	
4	
5	
5	
6	
5	
4	
5	
11	
6	
4	
2	
2	
4	
9	
7	
2	
7	
11	
4	
5	
3	
8	
9	
6	
7	
4	
9	
10	
4	
7	
2	
5	
3	
6	
5	
6	
5	
9	
7	
3	
3	
5	
4	
3	
10	
4	
6	
9	
8	
6	
2	
9	
6	
4	
2	
7	
5	
3	
7	
6	
2	
6	
8	
9	
9	
9	
5	
6	
5	
8	
5	
10	
5	
6	
7	
7	
7	
4	
4	
5	
7	
8	
5	
8	
5	
7	
8	
7	
6	
7	
6	
8	
4	
9	
4	
6	
3	
6	
5	
4	
4	
5	
12	
7	
6	
4	
6	
6	
5	
3	
3	
2	
5	
9	
2	
5	
5	
10	
6	
5	
7	
6	
9	
3	
3	
4	
8	
8	
6	
9	
4	
6	
7	
8	
5	
9	
3	
4	
7	
5	
5	
3	
8	
4	
3	
8	
7	
7	
9	
8	
3	
4	
6	
2	
6	
5	
4	
3	
8	
10	
12	
3	
4	
3	
6	
6	
6	
9	
9	
1	
9	
6	
6	
7	
4	
8	
8	
7	
6	
7	
5	
4	
5	
5	
5	
6	
2	
6	
6	
0	
1	
3	
5	
4	
5	
2	
6	
7	
5	
4	
2	
6	
8	
3	
6	
5	
5	
6	
7	
9	
6	
4	
6	
5	
7	
7	
7	
3	
10	
6	
6	
10	
1	
5	
6	
5	
3	
3	
2	
5	
5	
3	
4	
7	
3	
2	
5	
5	
4	
6	
5	
5	
3	
4	
6	
7	
3	
3	
5	
8	
7	
5	
7	
6	
2	
10	
4	
7	
6	
5	
6	
2	
4	
3	
6	
10	
6	
4	
5	
3	
3	
8	
4	
8	
5	
5	
3	
6	
4	
7	
6	
6	
6	
6	
8	
4	
3	
1	
3	
4	
4	
1	
6	
4	
8	
6	
6	
3	
5	
3	
4	
6	
6	
4	
9	
4	
3	
5	
5	
3	
4	
7	
8	
9	
12	
2	
4	
5	
10	
7	
6	
7	
7	
2	
5	
9	
9	
4	
8	
6	
4	
3	
3	
4	
6	
7	
2	
7	
4	
3	
5	
4	
7	
3	
5	
10	
3	
5	
6	
9	
6	
5	
5	
9	
5	
1	
4	
5	
7	
6	
3	
6	
5	
7	
11	
4	
10	
4	
3	
4	
14	
4	
2	
5	
7	
6	
5	
6	
8	
5	
5	
3	
2	
4	
7	
3	
4	
3	
3	
2	
7	
6	
4	
2	
5	
6	
3	
8	
1	
6	
7	
4	
3	
5	
3	
3	
4	
1	
4	
3	
5	
3	
8	
2	
2	
5	
3	
8	
7	
7	
6	
3	
5	
3	
6	
6	
4	
3	
4	
6	
6	
3	
6	
7	
5	
3	
4	
1	
4	
4	
7	
6	
5	
2	
4	
2	
5	
6	
2	
6	
8	
4	
7	
2	
6	
7	
4	
4	
5	
6	
4	
4	
5	
4	
11	
4	
7	
4	
4	
4	
7	
4	
2	
7	
1	
5	
7	
4	
5	
4	
4	
3	
6	
4	
6	
4	
5	
4	
7	
2	
4	
3	
6	
5	
5	
3	
5	
5	
4	
1	
2	
7	
6	
5	
9	
6	
6	
2	
4	
2	
7	
4	
6	
5	
6	
9	
5	
6	
9	
3	
9	
6	
7	
4	
7	
8	
6	
4	
5	
5	
4	
7	
6	
5	
5	
7	
5	
2	
4	
5	
8	
5	
7	
1	
4	
5	
5	
3	
3	
2	
2	
4	
1	
5	
4	
7	
6	
6	
8	
2	
7	
2	
2	
6	
4	
6	
6	
8	
8	
2	
2	
9	
8	
2	
3	
3	
2	
6	
10	
5	
5	
3	
4	
3	
4	
5	
4	
4	
4	
6	
3	
5	
3	
3	
7	
1	
1	
3	
4	
3	
1	
5	
4	
9	
7	
3	
4	
4	
6	
2	
2	
9	
2	
2	
7	
3	
7	
8	
7	
3	
3	
3	
5	
3	
3	
5	
6	
5	
4	
3	
3	
5	
6	
5	
4	
5	
7	
7	
2	
6	
6	
1	
4	
4	
4	
3	
2	
2	
1	
4	
8	
5	
2	
7	
3	
6	
7	
5	
10	
5	
5	
4	
8	
3	
2	
5	
7	
7	
1	
7	
3	
5	
4	
1	
5	
8	
3	
6	
3	
7	
7	
5	
4	
0	
5	
3	
2	
4	
2	
5	
8	
1	
9	
6	
6	
3	
6	
3	
7	
6	
5	
5	
4	
7	
1	
4	
2	
5	
5	
4	
3	
4	
0	
4	
5	
8	
5	
5	
7	
4	
6	
3	
6	
8	
4	
6	
3	
4	
2	
6	
5	
5	
5	
3	
6	
2	
4	
7	
1	
1	
2	
3	
5	
6	
5	
2	
11	
1	
6	
4	
9	
3	
2	
6	
6	
3	
3	
6	
5	
4	
8	
1	
9	
2	
6	
5	
2	
7	
5	
4	
1	
3	
1	
3	
6	
6	
5	
6	
5	
2	
3	
6	
1	
8	
3	
4	
6	
4	
2	
4	
6	
4	
7	
5	
6	
4	
4	
6	
4	
1	
2	
6	
3	
6	
5	
3	
2	
9	
3	
2	
5	
5	
6	
1	
3	
4	
5	
5	
3	
2	
3	
3	
6	
0	
4	
5	
3	
2	
6	
2	
7	
7	
6	
4	
3	
7	
5	
1	
7	
6	
9	
4	
3	
2	
2	
4	
6	
5	
6	
8	
2	
6	
8	
8	
3	
9	
6	
5	
3	
5	
6	
4	
5	
3	
6	
5	
6	
4	
4	
6	
4	
3	
5	
6	
4	
4	
3	
4	
4	
5	
7	
9	
5	
5	
7	
2	
7	
2	
5	
2	
4	
8	
3	
3	
10	
0	
7	
7	
4	
4	
7	
3	
4	
5	
5	
4	
4	
1	
4	
3	
6	
8	
7	
4	
3	
2	
2	
2	
2	
6	
5	
4	
5	
6	
4	
2	
4	
3	
3	
3	
3	
4	
7	
7	
6	
4	
3	
9	
3	
3	
1	
1	
3	
4	
2	
6	
8	
7	
1	
3	
8	
7	
5	
6	
2	
5	
4	
3	
7	
3	
1	
3	
6	
5	
4	
5	
6	
5	
1	
4	
4	
2	
4	
4	
3	
7	
6	
5	
1	
3	
6	
5	
2	
4	
3	
4	
3	
5	
4	
4	
3	
5	
9	
6	
3	
4	
1	
4	
4	
1	
1	
2	
2	
2	
3	
2	
4	
2	
6	
2	
5	
10	
3	
3	
4	
9	
2	
3	
1	
3	
3	
7	
2	
4	
5	
6	
6	
8	
2	
4	
5	
3	
0	
3	
3	
6	
8	
7	
5	
1	
3	
4	
4	
7	
5	
5	
4	
6	
6	
3	
4	
5	
1	
6	
7	
8	
5	
1	
6	
4	
3	
5	
4	
3	
7	
1	
5	
2	
5	
4	
2	
2	
7	
3	
3	
4	
4	
3	
5	
6	
5	
4	
4	
1	
5	
6	
5	
4	
2	
3	
2	
7	
3	
3	
4	
5	
5	
5	
5	
1	
5	
2	
3	
5	
5	
5	
4	
0	
4	
6	
3	
3	
5	
0	
1	
3	
2	
7	
6	
3	
3	
3	
3	
6	
4	
9	
3	
2	
6	
3	
2	
3	
4	
2	
2	
5	
3	
4	
5	
5	
6	
4	
5	
6	
1	
2	
2	
4	
2	
3	
3	
4	
3	
5	
3	
1	
6	
4	
4	
4	
2	
8	
4	
2	
5	
3	
3	
6	
6	
5	
2	
4	
5	
1	
7	
3	
1	
6	
1	
1	
7	
3	
6	
3	
2	
6	
3	
2	
1	
2	
5	
2	
6	
4	
2	
5	
6	
3	
4	
5	
6	
4	
2	
5	
4	
1	
4	
8	
5	
4	
5	
3	
3	
8	
9	
3	
5	
6	
2	
1	
3	
8	
5	
6	
5	
1	
3	
1	
6	
3	
5	
2	
3	
6	
4	
7	
3	
3	
5	
2	
1	
2	
7	
4	
3	
3	
4	
4	
2	
5	
2	
3	
9	
2	
2	
3	
3	
2	
3	
3	
2	
4	
4	
7	
3	
4	
2	
2	
5	
2	
1	
5	
4	
3	
1	
1	
3	
3	
8	
6	
2	
0	
7	
3	
4	
5	
4	
6	
3	
1	
2	
6	
2	
6	
5	
5	
4	
4	
1	
3	
4	
5	
5	
2	
3	
3	
4	
4	
2	
1	
4	
2	
5	
6	
2	
9	
3	
6	
2	
3	
3	
10	
4	
5	
7	
3	
6	
3	
5	
3	
4	
2	
5	
3	
1	
3	
3	
2	
5	
1	
2	
1	
7	
3	
5	
6	
4	
4	
2	
3	
4	
6	
2	
8	
5	
5	
0	
3	
1	
6	
6	
8	
4	
2	
3	
2	
4	
2	
5	
2	
1	
1	
4	
4	
4	
5	
1	
4	
3	
2	
3	
0	
6	
2	
2	
0	
5	
2	
5	
5	
2	
3	
4	
1	
7	
3	
4	
2	
4	
2	
2	
1	
3	
2	
4	
3	
3	
2	
4	
4	
4	
0	
4	
1	
6	
2	
4	
6	
3	
8	
4	
5	
4	
1	
8	
3	
3	
9	
7	
4	
6	
5	
2	
0	
5	
3	
2	
2	
5	
6	
1	
3	
11	
3	
1	
1	
1	
5	
2	
3	
3	
6	
4	
5	
2	
3	
4	
5	
3	
4	
3	
4	
4	
5	
4	
5	
4	
3	
7	
3	
1	
0	
5	
7	
4	
3	
4	
2	
7	
2	
3	
1	
5	
2	
1	
6	
3	
7	
4	
5	
1	
5	
3	
5	
2	
10	
2	
6	
3	
4	
5	
8	
1	
5	
3	
3	
6	
2	
4	
6	
2	
2	
1	
7	
4	
4	
2	
8	
6	
4	
8	
3	
5	
2	
1	
7	
6	
4	
6	
6	
6	
2	
6	
2	
4	
2	
5	
1	
6	
1	
3	
2	
2	
6	
4	
3	
2	
5	
3	
3	
3	
3	
4	
1	
4	
3	
6	
2	
1	
7	
6	
3	
2	
5	
6	
2	
5	
6	
2	
2	
4	
5	
0	
4	
5	
2	
1	
3	
0	
1	
3	
4	
5	
3	
2	
1	
7	
2	
4	
5	
2	
2	
3	
6	
4	
2	
3	
3	
5	
1	
3	
2	
2	
6	
5	
4	
1	
4	
3	
2	
1	
0	
2	
2	
7	
4	
1	
1	
2	
0	
3	
2	
3	
4	
5	
2	
1	
2	
3	
2	
3	
7	
4	
1	
2	
4	
3	
3	
2	
5	
0	
8	
3	
3	
3	
4	
3	
3	
2	
7	
1	
7	
2	
2	
2	
5	
6	
2	
6	
0	
1	
1	
4	
1	
2	
4	
3	
3	
0	
2	
1	
1	
5	
5	
5	
5	
0	
6	
10	
5	
8	
2	
4	
3	
4	
4	
4	
2	
7	
2	
5	
1	
2	
3	
3	
7	
4	
3	
10	
8	
3	
2	
3	
3	
0	
0	
4	
4	
5	
2	
1	
6	
1	
2	
3	
3	
3	
5	
2	
4	
7	
1	
2	
2	
4	
2	
3	
1	
2	
6	
2	
5	
3	
7	
5	
3	
1	
3	
0	
5	
4	
1	
2	
3	
1	
4	
1	
0	
1	
3	
1	
9	
5	
3	
3	
2	
4	
0	
5	
3	
6	
2	
4	
2	
2	
3	
4	
3	
5	
2	
6	
7	
4	
6	
4	
4	
5	
2	
4	
1	
4	
3	
2	
2	
6	
1	
1	
0	
3	
2	
5	
3	
2	
3	
4	
2	
4	
0	
2	
5	
2	
4	
5	
5	
1	
7	
4	
2	
2	
3	
2	
5	
9	
4	
9	
0	
3	
6	
5	
6	
5	
1	
1	
3	
1	
2	
3	
1	
2	
4	
4	
3	
2	
2	
1	
2	
2	
2	
2	
7	
8	
4	
2	
1	
9	
3	
5	
5	
4	
5	
2	
4	
2	
5	
3	
3	
2	
4	
3	
2	
4	
2	
2	
2	
7	
6	
5	
2	
3	
2	
4	
3	
4	
4	
4	
3	
0	
2	
3	
1	
6	
1	
2	
3	
2	
3	
3	
6	
2	
2	
0	
2	
2	
2	
4	
3	
2	
3	
1	
1	
2	
2	
4	
0	
3	
5	
3	
2	
7	
0	
3	
1	
3	
2	
5	
4	
3	
3	
5	
4	
2	
2	
0	
2	
3	
2	
4	
2	
2	
4	
3	
3	
1	
5	
6	
1	
2	
2	
5	
4	
6	
3	
5	
6	
2	
3	
2	
1	
5	
2	
4	
2	
2	
4	
4	
1	
2	
3	
3	
3	
1	
2	
3	
0	
4	
0	
0	
0	
6	
6	
1	
2	
4	
5	
5	
4	
2	
3	
2	
4	
1	
1	
1	
3	
3	
1	
2	
6	
3	
1	
1	
4	
3	
3	
3	
3	
1	
2	
3	
2	
3	
7	
5	
2	
2	
0	
0	
1	
6	
2	
1	
2	
1	
3	
4	
3	
1	
3	
2	
4	
3	
1	
4	
4	
2	
1	
2	
5	
3	
2	
3	
3	
1	
2	
0	
4	
3	
2	
5	
7	
0	
0	
3	
0	
1	
4	
1	
0	
5	
0	
2	
0	
3	
2	
3	
1	
2	
1	
2	
1	
1	
1	
2	
2	
5	
1	
3	
0	
2	
9	
3	
3	
3	
0	
2	
5	
2	
7	
3	
3	
3	
1	
0	
4	
4	
4	
3	
1	
3	
6	
3	
2	
6	
3	
3	
4	
5	
2	
3	
3	
2	
4	
5	
2	
4	
3	
1	
4	
4	
2	
0	
3	
1	
3	
4	
5	
3	
2	
3	
6	
2	
4	
2	
4	
5	
5	
2	
6	
2	
2	
4	
3	
4	
5	
2	
5	
2	
2	
0	
2	
0	
4	
2	
2	
3	
7	
2	
3	
2	
2	
5	
5	
3	
2	
2	
4	
4	
4	
3	
3	
1	
3	
3	
4	
2	
0	
4	
4	
3	
1	
3	
3	
2	
1	
1	
3	
1	
2	
2	
3	
2	
1	
6	
4	
4	
3	
2	
4	
3	
3	
2	
1	
2	
3	
2	
3	
2	
3	
4	
2	
4	
2	
3	
2	
2	
2	
0	
2	
3	
3	
3	
4	
3	
7	
9	
3	
3	
1	
3	
0	
3	
2	
4	
2	
2	
2	
4	
2	
4	
2	
4	
0	
3	
2	
5	
2	
1	
3	
3	
1	
6	
0	
4	
3	
6	
3	
5	
5	
5	
2	
1	
0	
3	
3	
1	
6	
4	
2	
3	
2	
2	
2	
2	
2	
3	
1	
2	
1	
2	
1	
3	
5	
1	
0	
2	
3	
5	
0	
1	
5	
3	
2	
3	
6	
3	
3	
2	
6	
6	
3	
1	
6	
2	
5	
3	
3	
4	
1	
6	
2	
2	
2	
3	
5	
1	
0	
1	
1	
3	
3	
4	
3	
3	
0	
4	
3	
6	
2	
2	
3	
3	
2	
3	
2	
3	
3	
1	
1	
3	
5	
2	
3	
2	
0	
3	
3	
4	
3	
2	
5	
2	
6	
6	
4	
1	
4	
1	
1	
0	
3	
0	
4	
0	
3	
5	
3	
1	
2	
2	
3	
1	
5	
1	
0	
3	
4	
1	
2	
1	
0	
2	
6	
4	
5	
0	
5	
4	
1	
2	
3	
2	
3	
4	
1	
4	
2	
6	
3	
2	
5	
2	
4	
3	
1	
3	
2	
0	
2	
3	
2	
2	
4	
3	
4	
2	
2	
4	
1	
3	
2	
4	
0	
2	
3	
4	
5	
1	
3	
4	
4	
2	
2	
2	
3	
2	
1	
4	
1	
0	
3	
2	
0	
1	
4	
3	
3	
1	
1	
5	
5	
1	
2	
3	
4	
0	
3	
3	
4	
1	
5	
2	
3	
1	
2	
5	
4	
2	
1	
1	
4	
2	
1	
3	
2	
2	
2	
0	
5	
2	
5	
2	
3	
1	
3	
2	
4	
5	
1	
1	
4	
2	
6	
0	
1	
0	
3	
1	
1	
2	
4	
6	
3	
4	
1	
2	
2	
1	
4	
5	
2	
3	
6	
2	
3	
4	
2	
3	
2	
5	
4	
1	
0	
0	
1	
5	
5	
5	
3	
2	
1	
3	
1	
3	
6	
6	
2	
2	
2	
0	
3	
3	
2	
0	
2	
5	
0	
3	
1	
2	
3	
2	
3	
6	
1	
3	
3	
3	
0	
4	
2	
4	
6	
2	
4	
4	
1	
2	
5	
0	
4	
3	
1	
2	
2	
2	
3	
2	
3	
2	
0	
4	
3	
3	
2	
5	
3	
3	
1	
4	
4	
5	
1	
3	
0	
1	
3	
4	
3	
3	
1	
4	
6	
2	
4	
5	
0	
3	
2	
0	
1	
0	
3	
1	
2	
3	
3	
3	
4	
1	
4	
5	
2	
3	
2	
3	
1	
1	
1	
0	
6	
3	
2	
5	
0	
4	
1	
4	
2	
3	
2	
1	
2	
1	
6	
5	
2	
6	
4	
2	
3	
1	
1	
3	
4	
5	
1	
2	
0	
4	
3	
3	
1	
4	
2	
1	
6	
2	
2	
5	
3	
4	
0	
3	
4	
1	
2	
3	
1	
0	
2	
5	
2	
2	
3	
2	
2	
5	
1	
3	
5	
2	
3	
4	
2	
1	
0	
1	
1	
0	
1	
2	
2	
4	
2	
5	
3	
3	
3	
1	
3	
3	
3	
3	
4	
6	
1	
1	
2	
1	
1	
2	
2	
1	
2	
2	
4	
0	
3	
3	
3	
1	
3	
3	
3	
0	
2	
5	
0	
3	
4	
1	
2	
3	
3	
2	
1	
4	
1	
2	
3	
1	
3	
2	
0	
2	
3	
0	
3	
3	
1	
0	
3	
1	
1	
0	
4	
4	
1	
3	
2	
4	
5	
3	
2	
1	
2	
1	
0	
2	
2	
5	
3	
4	
2	
3	
4	
2	
1	
0	
2	
0	
1	
3	
2	
4	
2	
1	
5	
0	
1	
4	
3	
4	
1	
3	
2	
2	
2	
3	
3	
1	
1	
1	
3	
2	
2	
1	
4	
2	
1	
1	
5	
3	
2	
3	
2	
2	
2	
5	
2	
1	
1	
2	
6	
4	
0	
1	
2	
1	
1	
1	
8	
4	
0	
3	
2	
0	
4	
2	
3	
3	
1	
3	
1	
4	
2	
5	
1	
4	
4	
1	
3	
1	
4	
3	
1	
4	
2	
1	
1	
3	
3	
1	
4	
2	
1	
4	
3	
2	
2	
1	
5	
3	
4	
4	
1	
2	
1	
5	
3	
1	
4	
2	
7	
5	
5	
2	
1	
4	
0	
4	
1	
4	
4	
3	
1	
5	
2	
1	
1	
0	
3	
0	
3	
3	
2	
1	
2	
2	
5	
0	
2	
2	
2	
2	
2	
1	
1	
0	
2	
3	
2	
3	
1	
2	
1	
2	
3	
1	
2	
2	
0	
2	
3	
2	
1	
1	
5	
1	
3	
6	
4	
0	
1	
1	
2	
3	
0	
2	
3	
3	
2	
1	
1	
1	
3	
3	
1	
4	
5	
6	
7	
3	
1	
3	
5	
2	
3	
0	
3	
4	
3	
0	
3	
1	
1	
2	
4	
1	
1	
0	
2	
3	
3	
1	
2	
1	
1	
1	
4	
3	
0	
4	
0	
1	
2	
1	
2	
4	
2	
5	
4	
2	
2	
5	
0	
4	
0	
4	
2	
2	
0	
2	
3	
1	
2	
4	
0	
2	
2	
1	
0	
1	
0	
1	
2	
3	
2	
2	
3	
2	
4	
3	
2	
1	
2	
4	
2	
4	
1	
5	
3	
2	
0	
2	
2	
2	
1	
2	
2	
2	
1	
1	
1	
3	
0	
1	
2	
2	
2	
0	
4	
1	
2	
4	
2	
0	
3	
0	
1	
1	
1	
3	
7	
2	
1	
3	
1	
1	
3	
3	
2	
1	
1	
6	
2	
3	
0	
3	
2	
5	
1	
5	
1	
2	
2	
3	
2	
3	
0	
2	
1	
1	
1	
5	
3	
2	
0	
3	
1	
2	
0	
4	
1	
0	
1	
1	
2	
1	
4	
2	
3	
4	
2	
1	
4	
2	
1	
2	
1	
1	
1	
5	
2	
1	
2	
1	
0	
4	
1	
2	
3	
2	
1	
3	
3	
0	
1	
3	
0	
2	
2	
1	
2	
2	
1	
2	
2	
4	
1	
6	
0	
3	
4	
5	
2	
1	
3	
1	
1	
3	
0	
0	
2	
2	
0	
3	
2	
2	
2	
1	
1	
1	
3	
1	
1	
1	
1	
5	
4	
2	
1	
1	
2	
1	
1	
3	
2	
2	
1	
0	
4	
1	
2	
0	
5	
3	
2	
1	
3	
2	
3	
0	
3	
4	
1	
3	
3	
1	
1	
0	
2	
5	
3	
1	
0	
1	
1	
3	
3	
3	
2	
0	
2	
4	
3	
2	
2	
2	
2	
1	
1	
0	
4	
3	
1	
3	
6	
0	
1	
0	
0	
2	
2	
3	
3	
5	
0	
2	
2	
1	
4	
0	
1	
3	
3	
1	
3	
2	
2	
2	
2	
1	
1	
0	
2	
4	
1	
2	
2	
2	
1	
3	
3	
0	
1	
1	
2	
2	
2	
3	
1	
4	
2	
3	
3	
5	
4	
2	
2	
2	
5	
1	
3	
0	
5	
1	
5	
2	
0	
3	
1	
3	
2	
1	
2	
4	
4	
0	
2	
1	
1	
2	
4	
0	
2	
2	
2	
1	
3	
0	
3	
2	
1	
3	
4	
2	
1	
2	
0	
1	
2	
5	
3	
3	
3	
3	
3	
1	
4	
1	
2	
2	
1	
0	
3	
2	
1	
1	
0	
2	
3	
3	
2	
1	
2	
2	
2	
0	
1	
3	
3	
2	
1	
3	
1	
2	
2	
4	
3	
1	
5	
5	
4	
2	
1	
4	
3	
2	
6	
3	
3	
1	
0	
2	
0	
1	
0	
2	
0	
4	
1	
0	
3	
6	
3	
1	
3	
3	
0	
3	
3	
2	
0	
3	
4	
0	
1	
0	
3	
2	
5	
4	
1	
2	
2	
2	
1	
2	
3	
2	
6	
0	
2	
4	
0	
1	
3	
0	
3	
1	
2	
1	
0	
1	
0	
2	
5	
0	
3	
4	
2	
2	
4	
0	
4	
0	
6	
3	
0	
4	
3	
1	
5	
3	
1	
1	
4	
0	
2	
5	
2	
2	
0	
2	
2	
2	
2	
1	
0	
1	
5	
0	
3	
1	
2	
3	
6	
2	
4	
4	
2	
4	
1	
1	
3	
3	
2	
2	
3	
2	
5	
0	
2	
0	
1	
3	
1	
2	
2	
2	
3	
3	
1	
3	
1	
0	
1	
2	
4	
0	
2	
4	
1	
3	
1	
4	
2	
2	
3	
1	
0	
3	
0	
1	
2	
3	
2	
0	
1	
1	
1	
1	
4	
2	
2	
2	
1	
3	
4	
2	
2	
4	
1	
1	
0	
4	
1	
4	
1	
1	
3	
1	
1	
0	
3	
1	
3	
1	
0	
2	
1	
1	
5	
1	
2	
1	
0	
2	
0	
2	
2	
2	
3	
1	
6	
3	
1	
0	
2	
3	
1	
3	
2	
2	
3	
2	
2	
2	
2	
3	
1	
0	
1	
0	
2	
1	
1	
0	
2	
3	
0	
5	
4	
2	
0	
1	
1	
0	
1	
1	
3	
3	
1	
2	
4	
3	
2	
0	
3	
1	
2	
7	
2	
2	
0	
2	
2	
1	
0	
1	
6	
1	
2	
3	
1	
0	
0	
1	
2	
0	
0	
3	
5	
0	
1	
4	
1	
1	
3	
2	
0	
3	
1	
2	
2	
2	
2	
5	
3	
4	
2	
1	
1	
2	
3	
2	
0	
1	
2	
5	
3	
1	
2	
1	
2	
3	
1	
2	
3	
3	
3	
0	
1	
1	
2	
3	
1	
2	
2	
1	
5	
0	
1	
3	
0	
2	
2	
0	
1	
3	
1	
2	
2	
2	
2	
2	
3	
4	
2	
3	
1	
2	
1	
2	
1	
3	
5	
1	
3	
1	
3	
3	
5	
4	
0	
0	
2	
3	
2	
1	
2	
6	
2	
3	
1	
0	
1	
2	
3	
2	
4	
3	
2	
1	
4	
1	
3	
0	
1	
1	
0	
0	
3	
3	
1	
2	
3	
6	
2	
5	
4	
3	
1	
1	
3	
1	
1	
2	
1	
4	
4	
3	
0	
1	
0	
1	
3	
2	
2	
1	
3	
2	
1	
2	
1	
1	
2	
0	
2	
3	
0	
2	
0	
2	
2	
4	
1	
4	
1	
2	
3	
0	
1	
4	
1	
4	
1	
2	
3	
0	
2	
2	
4	
1	
1	
0	
2	
0	
1	
1	
1	
1	
1	
0	
1	
4	
1	
1	
0	
1	
1	
3	
4	
0	
2	
2	
2	
3	
4	
2	
4	
4	
4	
2	
4	
2	
3	
2	
1	
2	
6	
1	
2	
2	
1	
2	
1	
2	
1	
1	
1	
4	
2	
1	
3	
3	
2	
2	
4	
1	
2	
2	
3	
2	
3	
4	
2	
2	
3	
2	
4	
3	
0	
2	
1	
0	
0	
1	
5	
1	
1	
4	
1	
2	
3	
4	
2	
0	
1	
1	
1	
2	
0	
2	
2	
2	
4	
1	
1	
1	
2	
0	
1	
2	
1	
2	
0	
0	
1	
0	
3	
3	
3	
1	
1	
0	
3	
0	
1	
2	
1	
2	
2	
0	
2	
2	
4	
3	
4	
3	
2	
0	
0	
2	
1	
3	
1	
4	
0	
3	
1	
1	
2	
2	
2	
2	
4	
0	
2	
6	
3	
2	
5	
1	
2	
2	
3	
1	
3	
2	
0	
4	
0	
3	
1	
1	
3	
1	
0	
1	
2	
2	
1	
1	
2	
2	
1	
2	
1	
0	
2	
2	
1	
1	
3	
1	
2	
0	
2	
2	
2	
6	
1	
2	
4	
2	
1	
5	
6	
2	
1	
0	
0	
1	
4	
2	
1	
3	
1	
4	
1	
2	
1	
3	
1	
1	
3	
2	
0	
2	
1	
3	
2	
1	
0	
1	
0	
2	
2	
1	
4	
2	
2	
0	
2	
2	
0	
3	
2	
2	
1	
2	
1	
2	
3	
5	
0	
1	
1	
2	
4	
1	
2	
2	
1	
3	
5	
2	
3	
1	
2	
4	
3	
2	
3	
1	
1	
1	
0	
3	
2	
1	
0	
1	
4	
0	
2	
1	
1	
2	
0	
2	
2	
1	
0	
0	
1	
1	
2	
0	
0	
0	
0	
3	
1	
1	
1	
1	
1	
2	
3	
1	
2	
1	
3	
1	
3	
3	
2	
3	
5	
1	
0	
4	
3	
2	
2	
3	
3	
0	
4	
2	
1	
0	
2	
1	
1	
0	
4	
3	
1	
4	
0	
2	
2	
3	
3	
2	
2	
4	
6	
1	
0	
2	
0	
2	
3	
3	
1	
1	
2	
3	
3	
2	
2	
0	
4	
2	
0	
2	
2	
1	
1	
3	
2	
0	
2	
2	
2	
2	
1	
0	
2	
0	
1	
3	
2	
2	
1	
3	
3	
2	
1	
1	
2	
4	
3	
1	
3	
2	
4	
2	
3	
1	
0	
4	
0	
1	
1	
1	
0	
1	
1	
0	
3	
1	
1	
2	
1	
1	
1	
2	
2	
2	
0	
0	
2	
2	
1	
1	
2	
1	
1	
0	
1	
2	
1	
2	
1	
2	
2	
1	
4	
2	
4	
0	
2	
4	
2	
3	
0	
1	
2	
1	
1	
1	
3	
0	
2	
0	
5	
1	
2	
2	
2	
0	
1	
1	
0	
2	
2	
2	
0	
3	
1	
1	
0	
0	
4	
1	
0	
1	
4	
1	
0	
2	
3	
2	
0	
1	
2	
2	
1	
2	
2	
2	
1	
1	
1	
0	
1	
1	
1	
1	
0	
3	
3	
0	
3	
1	
3	
1	
2	
1	
1	
3	
2	
3	
3	
1	
1	
4	
1	
1	
3	
3	
0	
4	
1	
0	
0	
3	
1	
5	
1	
0	
2	
2	
3	
4	
1	
2	
3	
2	
1	
2	
2	
1	
2	
0	
1	
1	
2	
1	
2	
1	
0	
1	
0	
2	
2	
0	
2	
3	
0	
0	
3	
2	
1	
2	
1	
2	
4	
0	
0	
0	
3	
1	
0	
5	
1	
2	
0	
3	
1	
0	
2	
1	
0	
3	
2	
2	
1	
0	
3	
4	
0	
1	
0	
2	
3	
1	
1	
3	
1	
2	
2	
2	
1	
3	
2	
0	
2	
1	
0	
1	
1	
1	
1	
0	
1	
1	
2	
1	
0	
2	
4	
0	
4	
3	
1	
0	
2	
2	
1	
2	
1	
2	
1	
1	
2	
2	
2	
2	
1	
0	
0	
0	
1	
1	
1	
2	
2	
2	
2	
1	
2	
1	
2	
2	
3	
2	
1	
2	
1	
1	
0	
0	
2	
1	
1	
1	
1	
2	
4	
5	
1	
2	
2	
2	
1	
5	
2	
0	
0	
2	
2	
6	
2	
2	
1	
5	
0	
1	
5	
4	
3	
1	
2	
1	
1	
0	
1	
0	
2	
0	
0	
0	
4	
3	
2	
4	
1	
3	
2	
1	
0	
1	
2	
1	
1	
2	
1	
1	
1	
1	
3	
3	
3	
5	
1	
3	
2	
0	
2	
0	
2	
1	
1	
1	
0	
1	
1	
3	
1	
4	
0	
1	
1	
0	
6	
2	
1	
0	
0	
1	
3	
2	
2	
0	
0	
0	
0	
5	
1	
1	
1	
1	
0	
2	
1	
1	
0	
2	
2	
1	
2	
1	
1	
2	
0	
2	
3	
0	
1	
1	
3	
0	
1	
0	
2	
3	
2	
1	
2	
2	
0	
0	
4	
2	
1	
3	
1	
5	
1	
0	
0	
4	
0	
0	
4	
2	
0	
4	
1	
3	
0	
2	
2	
2	
2	
2	
2	
2	
1	
3	
1	
2	
2	
2	
1	
1	
3	
0	
1	
1	
2	
0	
1	
0	
1	
3	
1	
0	
3	
1	
3	
2	
1	
1	
2	
1	
3	
0	
1	
2	
1	
2	
2	
2	
1	
0	
2	
4	
0	
1	
0	
1	
2	
2	
3	
0	
3	
1	
1	
0	
0	
1	
1	
0	
1	
5	
1	
1	
4	
2	
1	
3	
1	
2	
1	
2	
0	
2	
2	
2	
2	
1	
0	
3	
1	
2	
0	
1	
5	
1	
2	
3	
3	
1	
4	
0	
0	
1	
2	
1	
1	
3	
1	
1	
1	
2	
2	
2	
2	
4	
1	
2	
1	
1	
2	
3	
2	
0	
3	
2	
2	
1	
1	
3	
0	
2	
0	
1	
2	
2	
2	
1	
0	
1	
1	
4	
3	
4	
5	
1	
0	
3	
5	
0	
3	
3	
0	
2	
0	
3	
0	
2	
2	
1	
4	
1	
2	
3	
1	
0	
0	
1	
0	
2	
3	
2	
3	
0	
3	
4	
1	
0	
1	
4	
1	
1	
4	
0	
3	
0	
1	
2	
3	
0	
3	
1	
1	
1	
1	
1	
0	
1	
3	
1	
3	
2	
2	
4	
1	
4	
1	
0	
0	
2	
0	
0	
2	
1	
1	
3	
3	
1	
1	
1	
0	
0	
2	
1	
1	
0	
2	
0	
2	
5	
2	
1	
2	
3	
1	
1	
2	
2	
0	
1	
0	
2	
1	
1	
2	
1	
6	
2	
0	
2	
2	
1	
1	
4	
2	
1	
1	
1	
1	
1	
4	
2	
3	
1	
2	
1	
1	
0	
1	
0	
1	
2	
2	
0	
1	
2	
2	
2	
3	
1	
2	
3	
1	
3	
1	
0	
0	
3	
2	
0	
1	
1	
1	
0	
1	
2	
1	
1	
1	
2	
2	
2	
1	
4	
0	
0	
1	
3	
3	
2	
2	
2	
4	
1	
1	
1	
1	
0	
1	
0	
0	
2	
1	
2	
3	
2	
3	
2	
0	
2	
1	
2	
2	
0	
1	
2	
0	
1	
3	
1	
4	
1	
3	
0	
0	
1	
1	
2	
2	
1	
3	
1	
0	
2	
3	
1	
1	
5	
3	
2	
2	
3	
0	
0	
1	
2	
4	
1	
0	
0	
1	
0	
1	
3	
1	
1	
4	
0	
2	
0	
0	
1	
1	
3	
3	
2	
2	
1	
1	
3	
1	
2	
1	
2	
0	
4	
4	
2	
1	
3	
1	
0	
3	
1	
1	
3	
0	
2	
0	
0	
3	
3	
3	
0	
1	
1	
1	
1	
1	
1	
1	
2	
2	
1	
3	
4	
1	
2	
1	
2	
1	
1	
0	
1	
3	
1	
1	
1	
1	
2	
2	
2	
1	
1	
1	
2	
0	
2	
3	
0	
2	
1	
2	
3	
2	
0	
1	
0	
2	
0	
1	
1	
3	
1	
1	
1	
0	
2	
1	
1	
0	
1	
2	
2	
2	
2	
6	
0	
1	
2	
0	
2	
2	
1	
1	
0	
3	
2	
0	
3	
0	
2	
0	
2	
0	
2	
3	
1	
1	
2	
0	
4	
1	
0	
1	
2	
2	
4	
2	
2	
1	
0	
1	
2	
2	
4	
4	
2	
3	
4	
1	
2	
2	
2	
0	
0	
4	
1	
2	
3	
0	
0	
1	
3	
1	
0	
1	
1	
1	
1	
2	
1	
4	
1	
2	
1	
0	
1	
3	
1	
4	
3	
1	
2	
1	
2	
3	
0	
0	
1	
1	
0	
0	
1	
0	
0	
0	
1	
5	
1	
3	
0	
1	
2	
4	
1	
1	
3	
3	
1	
2	
3	
2	
3	
3	
2	
2	
1	
2	
1	
2	
4	
1	
0	
3	
3	
2	
0	
0	
1	
2	
0	
3	
0	
1	
3	
2	
0	
0	
0	
1	
2	
0	
3	
1	
0	
2	
2	
1	
0	
1	
6	
6	
2	
0	
1	
2	
1	
2	
1	
1	
1	
2	
3	
5	
3	
3	
2	
1	
0	
1	
2	
2	
1	
3	
1	
1	
2	
1	
2	
2	
1	
2	
1	
0	
2	
1	
3	
1	
1	
2	
0	
1	
2	
0	
0	
0	
0	
2	
2	
1	
2	
2	
2	
0	
1	
0	
1	
0	
1	
2	
3	
6	
2	
1	
2	
1	
3	
2	
4	
3	
1	
3	
2	
3	
0	
1	
0	
3	
1	
2	
1	
2	
0	
2	
2	
1	
0	
1	
1	
1	
1	
2	
1	
1	
2	
1	
2	
2	
2	
1	
3	
3	
1	
2	
2	
0	
4	
0	
1	
5	
5	
1	
3	
3	
0	
0	
3	
1	
4	
0	
1	
2	
1	
0	
3	
1	
1	
2	
2	
2	
0	
0	
5	
1	
5	
0	
3	
2	
1	
2	
1	
2	
0	
2	
4	
1	
2	
2	
1	
2	
1	
2	
0	
1	
1	
0	
1	
3	
0	
1	
2	
2	
1	
1	
1	
0	
2	
2	
2	
1	
0	
2	
1	
1	
2	
1	
0	
2	
0	
3	
1	
1	
1	
1	
1	
2	
1	
1	
0	
0	
0	
2	
0	
2	
1	
1	
3	
1	
2	
1	
1	
0	
0	
2	
1	
0	
0	
2	
0	
0	
0	
0	
0	
1	
1	
2	
0	
0	
3	
1	
2	
1	
1	
0	
2	
2	
1	
2	
1	
1	
2	
2	
4	
3	
3	
1	
1	
0	
3	
3	
5	
2	
4	
0	
5	
1	
1	
1	
1	
3	
2	
1	
5	
0	
3	
1	
2	
0	
2	
1	
3	
0	
1	
2	
3	
3	
3	
2	
3	
2	
0	
1	
0	
2	
3	
2	
1	
5	
1	
1	
2	
0	
1	
4	
1	
2	
2	
2	
0	
3	
0	
3	
1	
0	
0	
0	
3	
1	
2	
2	
1	
4	
4	
2	
3	
3	
1	
1	
3	
1	
2	
3	
2	
3	
2	
2	
0	
0	
1	
1	
2	
2	
0	
0	
2	
3	
2	
0	
0	
2	
1	
1	
1	
1	
3	
1	
1	
0	
2	
1	
3	
0	
0	
2	
2	
0	
2	
3	
1	
1	
2	
2	
2	
3	
2	
3	
2	
1	
0	
2	
2	
0	
3	
1	
0	
1	
1	
3	
2	
0	
3	
0	
2	
0	
0	
1	
0	
1	
1	
1	
1	
0	
4	
2	
4	
2	
0	
1	
1	
1	
0	
4	
1	
1	
3	
0	
2	
1	
1	
2	
3	
2	
1	
0	
1	
2	
0	
1	
0	
4	
3	
1	
1	
2	
2	
1	
3	
1	
2	
2	
0	
3	
5	
1	
0	
1	
2	
1	
3	
3	
0	
2	
1	
2	
1	
1	
0	
0	
3	
3	
1	
0	
1	
3	
1	
0	
2	
1	
0	
2	
1	
2	
1	
1	
1	
2	
0	
1	
5	
1	
0	
3	
1	
0	
3	
0	
0	
0	
0	
2	
0	
1	
0	
1	
1	
2	
2	
1	
3	
1	
1	
2	
2	
2	
0	
0	
1	
0	
2	
0	
0	
0	
1	
2	
1	
1	
2	
1	
1	
3	
2	
2	
2	
1	
0	
3	
2	
0	
1	
3	
2	
4	
1	
5	
1	
2	
0	
0	
2	
1	
1	
3	
3	
0	
1	
0	
0	
4	
1	
2	
1	
3	
1	
1	
0	
2	
2	
1	
0	
2	
2	
3	
2	
0	
2	
2	
4	
1	
2	
3	
2	
0	
1	
0	
1	
0	
1	
0	
0	
1	
2	
1	
1	
0	
1	
0	
4	
3	
1	
0	
2	
1	
2	
1	
2	
0	
0	
0	
1	
3	
2	
0	
0	
2	
0	
0	
4	
0	
0	
1	
0	
1	
2	
1	
0	
0	
1	
0	
2	
1	
3	
1	
2	
1	
2	
1	
2	
1	
1	
0	
0	
2	
1	
1	
0	
2	
1	
2	
1	
3	
0	
0	
2	
1	
2	
2	
2	
3	
1	
2	
2	
1	
1	
1	
1	
1	
3	
2	
3	
1	
1	
0	
2	
2	
0	
2	
1	
1	
2	
2	
0	
0	
0	
4	
3	
0	
1	
2	
3	
1	
1	
1	
1	
0	
1	
0	
2	
0	
1	
0	
0	
2	
0	
2	
1	
1	
0	
1	
0	
2	
1	
2	
0	
2	
1	
3	
1	
3	
2	
3	
0	
0	
1	
2	
1	
0	
0	
3	
1	
0	
4	
1	
1	
1	
1	
1	
0	
