#PicoHarp 300  Histogram Data			03/27/2023 12:37:36 PM
#channels per curve
31250
#display curve no.
0	
#memory block no.
0	
#ns/channel
0.1280	
#counts
0	
1	
1	
2	
2	
1	
1	
0	
2	
0	
1	
1	
1	
2	
1	
2	
2	
3	
1	
2	
2	
0	
1	
1	
0	
3	
0	
1	
0	
0	
1	
4	
1	
1	
1	
1	
0	
1	
1	
1	
1	
1	
2	
0	
1	
1	
0	
0	
1	
0	
3	
1	
1	
0	
0	
2	
1	
4	
3	
3	
4	
6	
8	
5	
21	
18	
33	
40	
70	
87	
107	
153	
188	
245	
282	
302	
387	
431	
422	
415	
449	
452	
466	
455	
431	
482	
456	
445	
434	
418	
433	
448	
454	
424	
396	
413	
370	
458	
406	
404	
469	
439	
400	
423	
402	
400	
361	
414	
394	
379	
384	
397	
390	
376	
375	
368	
370	
387	
392	
372	
368	
365	
407	
383	
384	
333	
345	
378	
392	
354	
312	
322	
369	
343	
367	
343	
360	
347	
363	
340	
358	
365	
332	
303	
329	
347	
339	
306	
332	
332	
330	
346	
333	
359	
333	
351	
330	
343	
326	
320	
321	
324	
329	
328	
331	
331	
297	
333	
333	
336	
305	
293	
321	
312	
287	
319	
287	
329	
316	
301	
301	
285	
274	
280	
271	
271	
281	
313	
285	
299	
289	
299	
277	
256	
295	
309	
274	
279	
289	
302	
319	
282	
257	
283	
254	
274	
253	
291	
280	
257	
286	
270	
274	
244	
249	
262	
278	
269	
281	
275	
243	
252	
252	
277	
248	
267	
277	
282	
233	
260	
274	
253	
241	
248	
235	
257	
284	
235	
218	
244	
252	
278	
270	
251	
248	
240	
242	
236	
241	
253	
220	
236	
231	
253	
248	
245	
216	
249	
238	
222	
224	
232	
244	
251	
237	
247	
222	
221	
237	
216	
224	
211	
246	
238	
229	
229	
225	
196	
217	
236	
225	
208	
231	
204	
237	
222	
252	
235	
218	
216	
224	
199	
223	
220	
223	
221	
210	
222	
204	
216	
196	
218	
198	
200	
216	
204	
220	
212	
223	
225	
217	
221	
217	
234	
202	
218	
219	
200	
203	
187	
218	
214	
213	
239	
193	
214	
226	
210	
219	
210	
213	
196	
193	
224	
217	
203	
210	
195	
190	
192	
180	
205	
192	
186	
194	
197	
192	
199	
164	
192	
215	
178	
158	
192	
188	
189	
194	
189	
198	
191	
182	
203	
185	
194	
177	
205	
174	
191	
193	
183	
183	
188	
205	
217	
193	
193	
197	
188	
172	
161	
175	
176	
187	
189	
177	
201	
199	
156	
179	
171	
174	
175	
213	
183	
167	
167	
175	
179	
179	
174	
176	
179	
152	
183	
172	
150	
176	
181	
174	
156	
185	
158	
176	
155	
177	
199	
163	
170	
174	
173	
174	
171	
161	
147	
183	
184	
142	
165	
166	
173	
165	
170	
153	
160	
160	
163	
173	
194	
176	
176	
150	
159	
151	
182	
155	
165	
181	
159	
165	
137	
161	
151	
151	
183	
159	
143	
162	
145	
166	
136	
169	
179	
168	
151	
153	
174	
162	
162	
144	
163	
150	
143	
171	
157	
148	
154	
162	
141	
159	
141	
176	
169	
153	
158	
161	
145	
153	
143	
134	
170	
159	
137	
142	
136	
152	
146	
149	
150	
166	
136	
149	
146	
149	
153	
118	
149	
149	
164	
147	
151	
157	
141	
142	
130	
146	
149	
145	
144	
166	
142	
128	
138	
131	
160	
156	
149	
144	
127	
140	
134	
148	
149	
134	
135	
131	
126	
160	
150	
151	
129	
125	
110	
144	
133	
130	
135	
141	
130	
134	
124	
154	
136	
143	
141	
138	
129	
128	
126	
136	
133	
152	
134	
150	
135	
124	
127	
130	
131	
119	
159	
132	
128	
131	
131	
132	
125	
149	
130	
139	
142	
129	
127	
131	
123	
137	
144	
137	
131	
106	
118	
130	
137	
140	
123	
116	
135	
139	
125	
142	
120	
140	
126	
122	
147	
127	
130	
121	
135	
116	
116	
139	
125	
104	
128	
115	
122	
137	
128	
112	
113	
139	
113	
123	
120	
108	
129	
112	
125	
118	
131	
114	
134	
117	
103	
119	
112	
110	
144	
141	
123	
134	
123	
113	
119	
125	
123	
137	
138	
97	
123	
122	
125	
95	
118	
104	
114	
102	
101	
131	
102	
137	
99	
116	
111	
136	
103	
113	
125	
114	
110	
127	
121	
114	
133	
104	
98	
117	
113	
97	
124	
127	
113	
113	
125	
103	
129	
102	
106	
109	
98	
120	
102	
124	
118	
116	
101	
101	
97	
113	
99	
120	
127	
116	
108	
113	
111	
116	
109	
111	
109	
88	
122	
117	
106	
93	
117	
89	
92	
125	
118	
119	
123	
113	
94	
116	
110	
120	
98	
118	
92	
105	
103	
128	
74	
128	
104	
93	
95	
83	
115	
117	
80	
107	
117	
111	
96	
114	
105	
109	
102	
112	
123	
91	
111	
101	
96	
84	
112	
81	
87	
99	
109	
118	
114	
95	
94	
87	
115	
115	
106	
97	
113	
114	
100	
118	
96	
92	
99	
103	
117	
101	
92	
98	
95	
92	
91	
85	
95	
101	
97	
87	
92	
105	
106	
91	
101	
112	
102	
92	
93	
94	
91	
93	
87	
84	
102	
117	
82	
80	
98	
89	
97	
101	
88	
106	
93	
82	
93	
104	
92	
104	
95	
105	
95	
101	
111	
99	
97	
102	
97	
88	
87	
89	
107	
98	
101	
82	
97	
111	
87	
82	
94	
87	
73	
87	
96	
90	
102	
97	
85	
86	
92	
99	
70	
88	
81	
95	
81	
85	
87	
95	
80	
106	
92	
85	
97	
85	
78	
99	
89	
102	
108	
77	
108	
78	
115	
80	
100	
100	
96	
88	
75	
70	
80	
111	
94	
79	
83	
92	
96	
75	
82	
65	
88	
80	
94	
79	
86	
94	
92	
88	
101	
102	
106	
98	
97	
93	
91	
88	
90	
90	
82	
94	
93	
81	
79	
85	
94	
74	
74	
81	
78	
82	
76	
90	
85	
102	
96	
82	
68	
98	
91	
88	
85	
87	
81	
95	
95	
83	
80	
78	
93	
88	
95	
80	
95	
83	
87	
95	
73	
80	
76	
97	
98	
80	
90	
80	
76	
76	
91	
71	
78	
80	
83	
88	
70	
79	
93	
75	
81	
85	
72	
70	
89	
81	
80	
89	
68	
99	
81	
84	
73	
74	
88	
95	
77	
89	
73	
83	
74	
65	
81	
76	
68	
72	
84	
88	
79	
69	
81	
89	
73	
76	
74	
70	
74	
79	
78	
87	
72	
71	
61	
80	
81	
83	
63	
65	
82	
71	
84	
70	
88	
72	
83	
67	
71	
88	
71	
79	
78	
77	
69	
77	
58	
81	
71	
82	
80	
70	
90	
68	
81	
73	
68	
71	
81	
73	
72	
86	
58	
82	
72	
79	
73	
59	
74	
74	
72	
85	
82	
73	
74	
68	
77	
80	
75	
80	
69	
81	
69	
61	
70	
79	
64	
79	
75	
66	
72	
76	
68	
73	
65	
74	
71	
64	
67	
67	
82	
71	
76	
82	
56	
69	
63	
76	
62	
78	
69	
61	
74	
74	
64	
70	
66	
78	
61	
78	
63	
65	
70	
64	
68	
64	
53	
65	
74	
92	
68	
56	
53	
76	
60	
75	
70	
56	
73	
80	
56	
87	
65	
66	
65	
65	
63	
75	
66	
72	
70	
58	
79	
64	
65	
65	
56	
77	
56	
61	
57	
76	
66	
63	
73	
73	
64	
66	
61	
54	
76	
65	
69	
72	
67	
54	
59	
58	
65	
64	
67	
75	
75	
76	
58	
71	
64	
62	
75	
70	
57	
66	
67	
65	
62	
72	
73	
70	
53	
52	
68	
52	
60	
72	
69	
65	
83	
67	
61	
55	
68	
71	
59	
73	
69	
66	
57	
44	
68	
73	
64	
60	
60	
56	
60	
74	
69	
77	
62	
64	
52	
50	
61	
71	
92	
62	
69	
61	
52	
53	
71	
76	
68	
67	
50	
54	
50	
68	
58	
66	
60	
53	
59	
74	
57	
59	
68	
68	
63	
75	
54	
49	
60	
77	
53	
63	
65	
60	
59	
54	
67	
62	
59	
62	
56	
64	
74	
55	
55	
71	
44	
51	
56	
73	
53	
61	
60	
44	
58	
65	
54	
70	
69	
61	
65	
59	
52	
81	
69	
48	
60	
56	
71	
56	
58	
57	
52	
65	
60	
55	
61	
70	
56	
55	
60	
78	
51	
53	
72	
46	
60	
67	
72	
54	
69	
57	
55	
53	
53	
63	
55	
62	
58	
57	
66	
49	
61	
52	
50	
46	
61	
57	
59	
36	
65	
75	
61	
56	
53	
49	
61	
61	
63	
48	
46	
54	
45	
47	
60	
65	
52	
51	
66	
48	
55	
55	
61	
55	
67	
42	
57	
52	
56	
52	
42	
43	
55	
61	
49	
52	
59	
57	
71	
47	
53	
48	
50	
57	
46	
51	
66	
61	
53	
62	
52	
53	
58	
45	
57	
56	
59	
66	
64	
58	
59	
48	
60	
49	
63	
53	
42	
49	
52	
53	
39	
53	
48	
54	
56	
59	
68	
43	
48	
45	
61	
51	
64	
49	
44	
47	
37	
49	
52	
54	
42	
48	
60	
54	
59	
61	
51	
51	
47	
54	
45	
63	
43	
49	
44	
45	
73	
52	
52	
44	
53	
47	
48	
50	
49	
72	
57	
57	
54	
35	
44	
54	
48	
40	
47	
52	
46	
48	
51	
62	
62	
65	
54	
52	
50	
41	
57	
59	
44	
41	
51	
48	
69	
58	
51	
40	
47	
64	
44	
53	
55	
49	
54	
52	
51	
49	
45	
46	
56	
53	
51	
43	
40	
60	
45	
49	
45	
48	
53	
49	
58	
54	
42	
57	
51	
36	
57	
45	
59	
46	
55	
45	
46	
43	
47	
47	
48	
40	
52	
48	
41	
60	
51	
43	
42	
42	
43	
56	
54	
53	
40	
47	
42	
49	
43	
47	
38	
57	
48	
41	
41	
44	
41	
44	
51	
42	
43	
54	
52	
42	
42	
43	
48	
46	
42	
51	
36	
58	
49	
66	
50	
65	
46	
52	
53	
49	
62	
42	
36	
39	
55	
36	
48	
60	
56	
43	
49	
48	
38	
34	
42	
44	
49	
49	
46	
56	
53	
52	
46	
43	
38	
38	
31	
44	
49	
34	
41	
29	
40	
45	
46	
44	
43	
47	
42	
50	
42	
40	
37	
43	
49	
39	
41	
51	
45	
41	
46	
41	
42	
47	
44	
57	
45	
28	
45	
48	
46	
42	
47	
48	
59	
38	
44	
40	
53	
42	
45	
48	
45	
39	
60	
38	
40	
46	
37	
56	
50	
50	
47	
47	
42	
42	
45	
47	
53	
45	
51	
48	
42	
35	
44	
39	
46	
39	
57	
33	
43	
34	
46	
23	
49	
50	
46	
41	
45	
33	
38	
41	
49	
46	
31	
43	
42	
59	
55	
36	
33	
35	
43	
50	
36	
41	
48	
39	
44	
57	
41	
48	
49	
47	
49	
38	
40	
41	
38	
53	
36	
36	
62	
32	
47	
40	
37	
48	
45	
47	
27	
50	
43	
38	
52	
48	
42	
36	
43	
43	
42	
37	
38	
33	
32	
38	
40	
36	
21	
44	
39	
45	
40	
47	
36	
42	
40	
48	
46	
23	
39	
45	
38	
59	
38	
33	
42	
41	
44	
34	
47	
32	
46	
45	
45	
46	
44	
41	
41	
46	
42	
47	
38	
45	
26	
32	
36	
35	
55	
39	
34	
38	
35	
40	
31	
38	
48	
47	
39	
41	
38	
51	
38	
41	
51	
44	
42	
47	
38	
48	
47	
34	
43	
40	
44	
52	
39	
38	
43	
41	
30	
35	
41	
46	
44	
39	
36	
50	
44	
44	
37	
31	
38	
41	
54	
34	
38	
32	
45	
34	
38	
34	
33	
33	
49	
52	
43	
34	
30	
53	
40	
36	
49	
45	
37	
36	
38	
30	
44	
38	
31	
36	
51	
27	
32	
36	
30	
45	
46	
41	
42	
35	
37	
32	
29	
37	
33	
47	
48	
34	
39	
41	
39	
46	
34	
44	
35	
35	
29	
45	
37	
42	
37	
38	
40	
27	
49	
31	
47	
32	
34	
39	
46	
45	
22	
31	
37	
47	
31	
36	
39	
45	
39	
39	
41	
41	
41	
28	
46	
37	
39	
47	
47	
38	
34	
41	
27	
40	
31	
48	
43	
40	
44	
45	
33	
43	
35	
39	
41	
49	
30	
35	
40	
33	
42	
42	
41	
47	
42	
31	
31	
36	
37	
27	
37	
33	
43	
33	
35	
29	
46	
23	
47	
27	
26	
37	
41	
27	
37	
38	
34	
38	
32	
32	
34	
42	
44	
34	
31	
36	
46	
41	
29	
43	
34	
20	
29	
29	
39	
32	
33	
42	
32	
29	
34	
45	
35	
32	
39	
43	
37	
30	
39	
38	
33	
31	
35	
34	
43	
26	
38	
38	
24	
36	
35	
41	
35	
28	
35	
34	
40	
34	
40	
45	
35	
20	
41	
33	
32	
26	
37	
32	
36	
31	
25	
44	
35	
44	
35	
26	
42	
38	
32	
39	
29	
34	
36	
30	
37	
35	
38	
39	
29	
35	
33	
25	
30	
29	
29	
36	
31	
31	
36	
36	
33	
35	
34	
36	
26	
29	
30	
31	
27	
30	
32	
31	
25	
40	
31	
27	
36	
25	
38	
33	
34	
31	
32	
40	
38	
33	
28	
32	
30	
37	
20	
32	
30	
47	
33	
37	
37	
37	
28	
31	
28	
33	
39	
39	
23	
36	
39	
29	
37	
32	
31	
24	
37	
34	
37	
40	
40	
40	
30	
34	
33	
33	
34	
30	
25	
23	
32	
28	
35	
41	
26	
37	
26	
41	
44	
29	
34	
41	
35	
40	
34	
23	
29	
32	
32	
31	
33	
34	
37	
32	
34	
25	
32	
36	
28	
29	
36	
25	
35	
25	
34	
32	
31	
26	
27	
29	
27	
36	
34	
24	
40	
28	
34	
30	
35	
36	
29	
29	
28	
30	
39	
39	
23	
43	
29	
32	
26	
21	
29	
25	
34	
28	
33	
34	
31	
42	
35	
28	
38	
32	
25	
27	
25	
42	
30	
21	
22	
27	
32	
31	
38	
33	
24	
42	
34	
31	
25	
33	
30	
30	
37	
23	
26	
41	
30	
33	
33	
31	
34	
33	
41	
25	
25	
23	
26	
37	
27	
29	
21	
24	
22	
21	
27	
31	
29	
35	
32	
43	
30	
43	
29	
26	
31	
39	
34	
28	
23	
29	
26	
34	
34	
18	
26	
30	
33	
39	
16	
29	
29	
31	
27	
29	
37	
33	
32	
28	
21	
29	
36	
25	
24	
33	
24	
28	
33	
28	
23	
29	
26	
32	
29	
27	
21	
35	
23	
31	
29	
30	
28	
32	
23	
36	
21	
27	
27	
39	
19	
22	
32	
30	
24	
24	
33	
31	
32	
32	
26	
28	
30	
33	
31	
38	
32	
31	
24	
33	
23	
35	
35	
29	
27	
37	
28	
27	
30	
32	
32	
31	
28	
28	
28	
30	
25	
27	
31	
22	
28	
34	
26	
34	
27	
13	
31	
38	
25	
27	
33	
26	
23	
33	
22	
19	
24	
28	
30	
30	
23	
32	
30	
26	
31	
26	
29	
31	
25	
32	
30	
26	
24	
33	
29	
26	
25	
32	
28	
34	
25	
32	
26	
23	
29	
31	
27	
25	
33	
31	
27	
23	
22	
43	
19	
32	
37	
26	
30	
23	
24	
27	
33	
28	
28	
32	
38	
29	
25	
20	
33	
12	
32	
15	
27	
39	
26	
26	
28	
25	
24	
30	
28	
26	
31	
25	
23	
31	
31	
34	
31	
34	
24	
20	
25	
15	
30	
27	
28	
23	
30	
24	
31	
27	
30	
35	
25	
22	
33	
20	
25	
32	
25	
25	
31	
28	
31	
20	
24	
26	
28	
23	
30	
19	
26	
32	
27	
25	
14	
27	
27	
27	
24	
30	
20	
24	
20	
25	
33	
36	
22	
21	
30	
17	
26	
26	
30	
29	
30	
17	
21	
32	
29	
26	
17	
34	
23	
34	
27	
33	
28	
22	
34	
23	
29	
35	
30	
35	
29	
22	
26	
25	
25	
22	
27	
35	
28	
28	
35	
32	
30	
24	
23	
23	
24	
35	
27	
28	
29	
27	
22	
17	
32	
30	
30	
27	
28	
38	
32	
20	
22	
26	
33	
26	
29	
28	
25	
22	
17	
30	
25	
23	
16	
25	
27	
24	
28	
20	
29	
25	
25	
28	
26	
27	
19	
34	
29	
19	
25	
20	
28	
22	
31	
20	
22	
29	
20	
32	
24	
15	
25	
30	
35	
32	
27	
32	
22	
25	
22	
27	
19	
23	
24	
29	
19	
25	
25	
28	
26	
25	
27	
17	
19	
27	
16	
23	
25	
26	
19	
20	
22	
20	
24	
21	
27	
26	
18	
28	
31	
22	
19	
20	
29	
26	
29	
19	
23	
19	
22	
18	
24	
25	
38	
24	
29	
24	
21	
22	
31	
22	
25	
22	
27	
20	
23	
26	
25	
30	
32	
15	
34	
26	
29	
26	
24	
27	
30	
38	
16	
26	
24	
26	
16	
22	
22	
30	
17	
30	
21	
18	
26	
17	
32	
19	
23	
22	
25	
22	
26	
28	
18	
40	
25	
19	
21	
18	
22	
24	
33	
21	
28	
22	
16	
21	
30	
32	
25	
29	
29	
17	
22	
22	
20	
21	
21	
19	
25	
20	
27	
35	
22	
18	
15	
25	
21	
28	
36	
30	
26	
16	
16	
27	
28	
24	
21	
28	
25	
30	
21	
15	
21	
29	
32	
20	
19	
22	
22	
23	
28	
24	
36	
27	
26	
25	
28	
23	
19	
25	
22	
17	
21	
24	
32	
30	
29	
29	
17	
19	
27	
28	
22	
15	
25	
22	
28	
22	
22	
21	
19	
17	
27	
22	
22	
23	
33	
29	
20	
16	
20	
15	
27	
38	
22	
31	
31	
25	
27	
24	
17	
25	
26	
20	
25	
22	
28	
31	
15	
26	
21	
18	
19	
13	
14	
18	
18	
19	
24	
30	
21	
26	
33	
25	
32	
25	
33	
14	
26	
24	
17	
19	
19	
31	
17	
23	
21	
26	
22	
17	
23	
22	
25	
16	
21	
21	
20	
20	
18	
28	
20	
18	
28	
13	
12	
26	
25	
25	
22	
20	
26	
13	
27	
25	
29	
17	
23	
23	
36	
27	
27	
21	
18	
28	
29	
25	
32	
28	
19	
24	
22	
23	
27	
14	
16	
20	
35	
21	
23	
21	
28	
22	
21	
23	
23	
18	
18	
15	
22	
27	
28	
25	
15	
18	
22	
13	
23	
24	
35	
28	
10	
20	
20	
22	
20	
19	
20	
14	
26	
22	
22	
17	
23	
26	
16	
13	
31	
15	
19	
15	
19	
19	
28	
21	
23	
17	
22	
22	
19	
14	
20	
21	
15	
24	
17	
26	
21	
23	
20	
24	
25	
23	
22	
15	
20	
14	
21	
24	
24	
24	
23	
27	
19	
20	
20	
22	
12	
25	
17	
19	
26	
20	
23	
23	
28	
19	
27	
23	
12	
26	
15	
15	
19	
17	
14	
13	
18	
22	
24	
22	
22	
10	
20	
21	
21	
34	
7	
23	
18	
21	
20	
18	
16	
22	
17	
17	
17	
13	
21	
17	
28	
28	
20	
16	
22	
13	
19	
26	
29	
21	
15	
17	
28	
11	
19	
21	
8	
15	
21	
29	
23	
22	
27	
21	
24	
22	
22	
16	
20	
17	
18	
21	
16	
20	
19	
13	
20	
22	
20	
24	
28	
22	
23	
13	
23	
30	
19	
22	
27	
17	
25	
19	
20	
13	
22	
19	
27	
18	
13	
26	
26	
27	
16	
21	
11	
16	
13	
17	
18	
24	
15	
24	
24	
21	
20	
23	
17	
23	
21	
19	
17	
17	
21	
20	
24	
16	
18	
22	
17	
14	
17	
18	
12	
16	
17	
25	
18	
24	
15	
25	
25	
19	
25	
11	
19	
27	
26	
19	
13	
19	
17	
19	
19	
19	
18	
14	
26	
26	
19	
26	
13	
17	
9	
25	
22	
20	
23	
22	
25	
18	
11	
19	
24	
21	
31	
30	
20	
30	
19	
21	
22	
11	
24	
18	
10	
15	
22	
17	
18	
28	
18	
13	
17	
22	
13	
17	
21	
23	
25	
13	
14	
20	
15	
18	
22	
23	
14	
16	
31	
19	
17	
18	
20	
24	
14	
17	
15	
17	
16	
16	
22	
16	
20	
16	
19	
21	
19	
17	
25	
11	
23	
17	
12	
22	
12	
16	
7	
16	
20	
16	
17	
19	
15	
17	
24	
19	
22	
24	
20	
9	
16	
23	
13	
13	
19	
17	
17	
20	
21	
22	
25	
14	
17	
20	
16	
20	
14	
12	
15	
16	
16	
24	
20	
22	
16	
24	
15	
15	
18	
17	
12	
9	
20	
15	
10	
18	
18	
20	
20	
23	
23	
15	
19	
17	
13	
19	
13	
14	
18	
19	
25	
30	
15	
24	
10	
21	
18	
11	
18	
25	
28	
22	
17	
13	
21	
10	
13	
23	
21	
16	
17	
22	
20	
13	
19	
15	
18	
19	
18	
13	
24	
23	
19	
16	
15	
18	
18	
21	
22	
23	
25	
18	
10	
13	
21	
8	
25	
24	
18	
18	
15	
9	
13	
15	
23	
15	
17	
21	
10	
20	
16	
15	
15	
15	
15	
17	
19	
12	
19	
16	
14	
22	
12	
12	
22	
16	
18	
20	
14	
22	
12	
22	
18	
14	
20	
15	
19	
19	
28	
21	
11	
11	
16	
10	
13	
16	
20	
17	
18	
13	
14	
19	
16	
18	
12	
16	
11	
15	
24	
20	
23	
22	
14	
13	
22	
20	
14	
13	
21	
18	
19	
23	
25	
19	
16	
15	
12	
9	
15	
17	
19	
12	
18	
16	
12	
19	
20	
18	
19	
21	
23	
13	
19	
18	
22	
19	
17	
16	
18	
14	
16	
13	
14	
18	
18	
15	
20	
11	
17	
8	
17	
20	
23	
13	
20	
21	
10	
15	
20	
22	
18	
19	
19	
14	
11	
20	
16	
20	
14	
12	
16	
20	
19	
16	
14	
24	
19	
12	
15	
14	
22	
18	
14	
18	
14	
15	
17	
14	
18	
23	
13	
33	
12	
13	
14	
11	
26	
16	
11	
16	
20	
16	
19	
16	
16	
17	
21	
14	
12	
14	
19	
22	
14	
17	
13	
22	
17	
16	
12	
14	
14	
16	
20	
21	
12	
16	
17	
19	
18	
9	
22	
20	
11	
17	
25	
19	
24	
15	
18	
18	
25	
20	
16	
19	
8	
15	
6	
14	
23	
11	
13	
20	
21	
15	
18	
17	
14	
19	
12	
19	
18	
16	
19	
19	
10	
11	
21	
17	
20	
20	
14	
12	
18	
15	
19	
18	
8	
21	
16	
16	
13	
18	
22	
27	
10	
23	
18	
17	
20	
15	
15	
16	
13	
13	
19	
18	
12	
22	
11	
18	
25	
13	
18	
17	
18	
15	
19	
11	
20	
21	
14	
20	
19	
21	
20	
11	
18	
12	
11	
18	
16	
11	
8	
10	
14	
12	
22	
12	
18	
14	
13	
16	
14	
21	
11	
23	
17	
16	
25	
18	
13	
15	
17	
13	
11	
6	
15	
19	
16	
19	
14	
17	
11	
16	
16	
20	
12	
28	
11	
10	
9	
16	
12	
11	
14	
11	
23	
20	
12	
10	
14	
10	
18	
19	
17	
13	
14	
15	
17	
11	
14	
28	
14	
15	
11	
20	
19	
11	
18	
12	
12	
20	
17	
23	
14	
14	
16	
14	
15	
13	
16	
14	
14	
14	
11	
15	
14	
22	
15	
20	
11	
13	
21	
12	
14	
14	
12	
15	
16	
15	
20	
15	
21	
11	
11	
12	
17	
12	
12	
18	
13	
21	
13	
14	
25	
16	
14	
9	
18	
14	
15	
19	
16	
12	
15	
11	
15	
17	
12	
11	
14	
18	
9	
12	
14	
14	
15	
14	
18	
10	
13	
14	
17	
23	
26	
16	
21	
19	
14	
18	
17	
17	
10	
7	
13	
13	
19	
18	
14	
19	
20	
10	
15	
15	
10	
14	
17	
16	
18	
12	
18	
24	
10	
17	
21	
11	
12	
8	
19	
18	
20	
12	
13	
12	
8	
21	
20	
15	
24	
15	
10	
17	
10	
18	
18	
9	
15	
13	
11	
12	
19	
12	
18	
16	
12	
14	
17	
11	
18	
12	
16	
19	
18	
13	
19	
9	
19	
10	
14	
17	
13	
16	
11	
15	
14	
19	
20	
20	
18	
15	
15	
17	
11	
20	
14	
14	
18	
20	
7	
14	
10	
11	
10	
11	
15	
13	
17	
14	
9	
14	
11	
15	
17	
15	
23	
9	
21	
19	
14	
15	
11	
14	
7	
13	
10	
18	
16	
8	
15	
9	
21	
12	
11	
15	
16	
16	
12	
11	
13	
16	
21	
14	
14	
12	
11	
17	
15	
13	
7	
15	
17	
10	
16	
15	
18	
5	
7	
16	
19	
17	
9	
15	
16	
10	
16	
15	
17	
10	
14	
19	
12	
19	
10	
13	
18	
18	
14	
13	
13	
8	
17	
12	
11	
11	
14	
16	
7	
13	
16	
18	
16	
13	
21	
9	
17	
16	
11	
18	
10	
11	
13	
11	
11	
15	
11	
12	
19	
17	
15	
11	
17	
10	
13	
14	
19	
13	
12	
14	
12	
18	
13	
10	
14	
14	
13	
7	
9	
19	
11	
12	
14	
7	
10	
18	
18	
12	
9	
14	
9	
11	
13	
13	
16	
17	
15	
19	
22	
10	
7	
12	
9	
12	
11	
12	
10	
10	
11	
21	
9	
21	
18	
9	
14	
8	
19	
7	
13	
16	
12	
18	
19	
17	
19	
12	
10	
12	
15	
11	
16	
16	
12	
13	
12	
16	
5	
10	
19	
13	
12	
16	
15	
12	
10	
15	
11	
14	
11	
13	
7	
12	
15	
13	
17	
17	
16	
9	
12	
17	
10	
15	
9	
13	
13	
13	
9	
11	
6	
13	
17	
7	
16	
16	
11	
8	
22	
13	
18	
11	
9	
14	
22	
15	
18	
19	
8	
11	
16	
13	
15	
12	
14	
11	
8	
13	
16	
17	
20	
18	
17	
11	
10	
7	
17	
23	
16	
11	
9	
14	
13	
7	
17	
14	
12	
11	
23	
11	
10	
8	
11	
16	
16	
12	
16	
14	
16	
7	
15	
8	
14	
11	
13	
17	
12	
15	
17	
16	
15	
11	
12	
15	
11	
17	
12	
14	
19	
11	
13	
12	
10	
11	
12	
10	
13	
12	
5	
16	
7	
12	
12	
9	
16	
13	
23	
9	
14	
10	
11	
9	
13	
12	
10	
13	
14	
13	
13	
10	
14	
9	
7	
18	
11	
8	
13	
9	
20	
10	
10	
21	
13	
10	
10	
16	
15	
11	
10	
12	
7	
15	
11	
17	
14	
14	
13	
15	
11	
17	
20	
18	
10	
9	
13	
8	
13	
9	
17	
13	
12	
9	
11	
8	
9	
11	
12	
9	
11	
12	
11	
9	
10	
13	
13	
12	
16	
15	
8	
12	
10	
10	
20	
12	
18	
11	
14	
17	
17	
13	
10	
14	
14	
14	
18	
14	
14	
12	
12	
8	
10	
18	
16	
8	
13	
14	
9	
21	
13	
13	
14	
5	
13	
17	
11	
10	
6	
7	
16	
12	
14	
11	
17	
11	
15	
16	
11	
11	
19	
13	
9	
9	
7	
11	
10	
10	
13	
13	
17	
1	
18	
8	
6	
12	
10	
9	
7	
14	
5	
10	
18	
13	
11	
10	
7	
9	
12	
17	
19	
8	
15	
6	
15	
9	
12	
6	
9	
9	
15	
12	
12	
14	
13	
9	
10	
16	
19	
15	
10	
14	
14	
11	
12	
14	
8	
9	
15	
14	
12	
16	
12	
10	
13	
12	
13	
7	
11	
11	
13	
13	
10	
16	
17	
4	
14	
13	
11	
9	
11	
9	
8	
14	
11	
10	
15	
15	
10	
9	
10	
20	
8	
15	
10	
16	
13	
10	
12	
16	
8	
14	
6	
12	
10	
12	
8	
9	
11	
19	
14	
14	
20	
12	
10	
16	
17	
14	
8	
11	
13	
7	
8	
17	
18	
10	
17	
10	
9	
11	
10	
9	
16	
8	
10	
11	
14	
14	
12	
12	
6	
20	
16	
10	
6	
12	
9	
15	
12	
11	
13	
14	
14	
11	
23	
15	
11	
8	
10	
13	
13	
16	
17	
12	
10	
9	
11	
12	
12	
16	
10	
8	
14	
14	
8	
13	
14	
14	
10	
8	
5	
8	
11	
10	
15	
11	
8	
11	
18	
16	
11	
4	
18	
10	
14	
13	
10	
12	
14	
11	
8	
11	
8	
13	
12	
7	
10	
11	
11	
11	
18	
6	
14	
8	
17	
9	
14	
8	
9	
9	
9	
9	
14	
6	
12	
6	
9	
9	
13	
10	
11	
12	
11	
14	
12	
11	
9	
10	
13	
11	
11	
10	
7	
9	
16	
13	
16	
6	
15	
12	
10	
14	
9	
11	
9	
7	
9	
11	
10	
7	
11	
8	
9	
9	
15	
8	
9	
9	
11	
8	
13	
16	
11	
11	
12	
6	
13	
7	
12	
4	
7	
12	
10	
7	
16	
15	
11	
9	
8	
16	
10	
15	
9	
16	
9	
8	
18	
19	
6	
16	
8	
9	
11	
5	
10	
11	
7	
13	
15	
8	
16	
18	
12	
7	
9	
7	
14	
14	
9	
13	
13	
13	
11	
4	
11	
10	
10	
5	
11	
11	
12	
7	
21	
8	
14	
9	
13	
11	
10	
11	
15	
7	
17	
12	
8	
8	
10	
11	
8	
11	
12	
10	
15	
9	
9	
13	
11	
9	
11	
16	
10	
12	
14	
10	
12	
4	
12	
12	
15	
7	
10	
11	
8	
9	
11	
11	
12	
10	
9	
13	
8	
17	
7	
5	
11	
7	
15	
15	
5	
17	
12	
12	
9	
14	
10	
10	
15	
11	
13	
10	
7	
5	
9	
9	
5	
9	
12	
11	
5	
14	
7	
13	
10	
11	
10	
11	
14	
11	
14	
8	
7	
6	
11	
13	
8	
4	
8	
10	
7	
11	
7	
15	
9	
10	
10	
11	
14	
9	
13	
9	
7	
13	
5	
12	
12	
9	
6	
11	
9	
8	
10	
11	
10	
10	
11	
7	
16	
12	
11	
14	
10	
10	
9	
11	
15	
11	
7	
5	
13	
13	
9	
15	
12	
16	
14	
3	
10	
9	
13	
12	
11	
7	
13	
12	
10	
13	
12	
10	
10	
13	
12	
11	
8	
10	
12	
17	
11	
6	
9	
14	
10	
11	
8	
8	
7	
12	
8	
14	
3	
6	
9	
9	
6	
8	
7	
14	
13	
15	
5	
10	
15	
8	
13	
13	
7	
18	
13	
4	
8	
9	
13	
14	
12	
18	
15	
12	
9	
17	
6	
8	
12	
10	
10	
11	
9	
13	
8	
8	
10	
12	
14	
11	
7	
9	
14	
6	
10	
12	
8	
3	
7	
12	
11	
8	
10	
5	
11	
14	
9	
12	
7	
6	
9	
8	
11	
10	
8	
8	
4	
15	
13	
16	
6	
15	
8	
8	
5	
8	
8	
12	
8	
5	
8	
8	
9	
12	
10	
9	
16	
7	
10	
9	
14	
7	
13	
9	
13	
13	
9	
7	
12	
14	
4	
10	
19	
14	
6	
8	
9	
8	
14	
9	
13	
10	
10	
11	
11	
9	
10	
7	
10	
11	
9	
9	
6	
9	
7	
15	
8	
11	
7	
10	
7	
10	
11	
12	
7	
13	
5	
11	
14	
9	
9	
8	
7	
9	
10	
5	
11	
10	
8	
9	
12	
15	
14	
12	
7	
13	
10	
5	
8	
7	
10	
10	
5	
9	
12	
15	
12	
21	
7	
16	
9	
7	
11	
12	
5	
10	
9	
5	
10	
11	
9	
10	
13	
9	
3	
7	
9	
11	
9	
12	
11	
7	
11	
10	
8	
10	
7	
7	
13	
9	
9	
9	
12	
9	
8	
9	
9	
5	
10	
6	
9	
10	
14	
9	
5	
9	
13	
12	
9	
8	
17	
16	
10	
9	
9	
12	
10	
10	
11	
10	
10	
10	
13	
10	
9	
7	
13	
8	
6	
9	
7	
3	
11	
5	
8	
11	
10	
17	
11	
13	
8	
7	
5	
13	
6	
9	
9	
8	
11	
6	
12	
14	
6	
9	
6	
3	
10	
10	
11	
6	
12	
9	
12	
10	
13	
9	
6	
8	
11	
12	
7	
15	
9	
13	
15	
8	
8	
14	
6	
11	
10	
6	
10	
8	
7	
9	
11	
16	
11	
13	
5	
9	
4	
17	
13	
9	
9	
9	
9	
11	
9	
8	
7	
14	
8	
11	
13	
8	
6	
9	
11	
7	
11	
8	
15	
17	
11	
12	
11	
9	
4	
11	
12	
15	
7	
12	
10	
6	
6	
10	
11	
7	
7	
8	
10	
11	
10	
7	
6	
7	
12	
7	
10	
10	
11	
7	
9	
6	
11	
10	
9	
12	
12	
5	
7	
9	
12	
11	
3	
14	
12	
15	
6	
14	
10	
7	
11	
4	
9	
10	
5	
13	
13	
9	
17	
9	
6	
8	
11	
15	
10	
13	
8	
7	
2	
0	
13	
5	
7	
10	
8	
12	
8	
11	
4	
9	
8	
8	
9	
7	
6	
12	
6	
12	
8	
12	
7	
8	
8	
6	
11	
8	
6	
7	
4	
7	
6	
6	
6	
6	
13	
10	
11	
8	
9	
9	
11	
5	
8	
7	
5	
8	
13	
11	
9	
7	
5	
3	
7	
11	
5	
13	
9	
13	
13	
4	
11	
4	
8	
16	
8	
7	
8	
15	
5	
9	
7	
6	
15	
10	
6	
10	
9	
14	
6	
6	
9	
6	
8	
6	
9	
14	
11	
13	
12	
6	
10	
6	
13	
9	
12	
8	
3	
6	
9	
7	
4	
9	
9	
11	
10	
11	
7	
9	
7	
10	
9	
7	
9	
9	
6	
9	
10	
9	
8	
5	
12	
2	
6	
10	
14	
5	
8	
9	
9	
7	
12	
10	
10	
9	
9	
11	
14	
6	
7	
14	
11	
6	
9	
12	
4	
7	
14	
4	
8	
6	
15	
9	
9	
11	
7	
11	
10	
7	
9	
6	
11	
11	
17	
11	
12	
13	
11	
11	
10	
7	
10	
12	
11	
4	
14	
8	
6	
11	
3	
11	
9	
8	
3	
12	
11	
9	
10	
12	
5	
8	
5	
12	
10	
8	
10	
12	
7	
7	
7	
9	
11	
9	
5	
8	
7	
6	
8	
9	
8	
7	
15	
11	
3	
11	
10	
16	
11	
11	
16	
9	
12	
6	
11	
9	
10	
14	
3	
7	
11	
9	
9	
7	
10	
10	
8	
12	
7	
15	
12	
10	
12	
12	
11	
6	
15	
4	
9	
10	
8	
16	
12	
9	
8	
7	
10	
9	
5	
8	
8	
7	
14	
13	
8	
7	
8	
9	
2	
9	
6	
9	
8	
14	
11	
10	
8	
5	
17	
12	
11	
7	
9	
9	
7	
5	
13	
8	
9	
8	
13	
8	
8	
5	
13	
7	
6	
9	
8	
8	
5	
9	
9	
7	
6	
14	
5	
5	
8	
9	
12	
5	
6	
5	
15	
5	
8	
8	
7	
12	
9	
7	
11	
9	
5	
9	
16	
2	
7	
5	
11	
11	
7	
12	
8	
10	
7	
11	
11	
3	
13	
11	
10	
7	
10	
10	
8	
11	
5	
10	
9	
12	
13	
6	
6	
11	
9	
15	
10	
6	
7	
5	
13	
11	
9	
7	
9	
7	
7	
9	
9	
15	
12	
8	
9	
12	
5	
2	
9	
17	
8	
4	
6	
15	
6	
9	
11	
9	
13	
7	
6	
12	
7	
6	
7	
7	
7	
10	
7	
7	
10	
7	
8	
4	
9	
7	
9	
8	
6	
7	
4	
11	
7	
6	
7	
15	
2	
5	
9	
7	
4	
7	
13	
2	
10	
6	
8	
5	
12	
10	
8	
5	
6	
11	
13	
6	
9	
8	
5	
12	
4	
6	
11	
12	
10	
6	
8	
6	
12	
9	
9	
7	
7	
7	
8	
3	
10	
10	
9	
5	
9	
7	
7	
8	
10	
7	
5	
10	
11	
11	
10	
7	
5	
9	
7	
5	
9	
7	
7	
7	
10	
8	
11	
9	
7	
8	
3	
15	
7	
5	
6	
6	
7	
10	
15	
5	
4	
5	
11	
5	
11	
7	
9	
8	
10	
9	
11	
9	
10	
5	
9	
7	
9	
7	
11	
13	
10	
8	
7	
3	
8	
8	
9	
13	
5	
4	
14	
10	
5	
9	
14	
7	
8	
3	
9	
16	
7	
6	
10	
8	
11	
9	
14	
9	
8	
5	
9	
9	
10	
6	
8	
6	
10	
10	
1	
5	
4	
9	
7	
7	
8	
1	
9	
11	
7	
10	
7	
7	
8	
9	
11	
7	
5	
3	
9	
9	
6	
3	
6	
5	
8	
6	
7	
5	
4	
11	
10	
8	
6	
8	
14	
9	
10	
18	
3	
8	
3	
10	
7	
12	
6	
9	
7	
5	
14	
7	
7	
13	
3	
6	
5	
15	
7	
4	
4	
7	
5	
12	
7	
10	
11	
5	
5	
8	
8	
9	
6	
9	
13	
13	
10	
12	
6	
8	
7	
10	
7	
6	
6	
6	
8	
5	
7	
8	
7	
6	
6	
10	
14	
5	
11	
9	
4	
11	
6	
10	
4	
9	
7	
7	
5	
5	
6	
14	
7	
8	
8	
7	
11	
7	
5	
5	
7	
8	
8	
8	
8	
7	
7	
5	
5	
5	
7	
5	
7	
13	
11	
10	
8	
5	
6	
9	
12	
9	
8	
6	
8	
2	
5	
8	
13	
2	
5	
11	
9	
7	
10	
5	
9	
11	
11	
8	
6	
8	
7	
6	
9	
9	
5	
10	
6	
6	
4	
8	
11	
9	
8	
13	
8	
7	
7	
14	
5	
6	
6	
8	
11	
5	
12	
4	
11	
6	
3	
6	
4	
5	
3	
8	
3	
4	
4	
9	
7	
6	
4	
6	
6	
7	
6	
7	
11	
6	
6	
6	
5	
11	
9	
5	
2	
6	
6	
7	
5	
8	
12	
5	
12	
7	
8	
10	
7	
7	
4	
9	
6	
6	
10	
10	
12	
4	
15	
8	
5	
11	
8	
9	
2	
7	
9	
13	
8	
10	
6	
8	
4	
10	
8	
7	
8	
11	
4	
7	
7	
4	
6	
10	
6	
7	
7	
8	
6	
8	
3	
9	
5	
6	
8	
7	
10	
6	
6	
7	
8	
5	
10	
2	
5	
7	
8	
6	
8	
10	
6	
11	
7	
7	
4	
4	
5	
9	
5	
6	
8	
8	
4	
4	
4	
6	
6	
4	
2	
10	
8	
5	
10	
9	
10	
5	
4	
10	
5	
8	
9	
6	
9	
5	
5	
5	
13	
3	
4	
11	
8	
1	
7	
6	
6	
6	
8	
8	
8	
3	
11	
6	
9	
6	
7	
5	
3	
4	
9	
11	
6	
5	
8	
9	
5	
4	
4	
12	
6	
5	
10	
4	
8	
6	
9	
7	
6	
7	
11	
6	
8	
6	
8	
7	
7	
7	
7	
6	
8	
6	
4	
11	
8	
9	
7	
5	
7	
9	
5	
8	
10	
9	
8	
2	
9	
10	
7	
10	
7	
10	
8	
6	
7	
8	
7	
10	
7	
5	
9	
8	
8	
11	
9	
7	
7	
12	
8	
12	
6	
0	
9	
13	
14	
17	
8	
4	
6	
8	
7	
10	
6	
10	
4	
5	
8	
9	
8	
6	
5	
6	
8	
8	
7	
8	
8	
6	
8	
4	
5	
10	
8	
10	
8	
11	
7	
12	
7	
6	
8	
6	
3	
6	
7	
11	
6	
5	
11	
4	
8	
5	
8	
1	
8	
11	
10	
2	
7	
6	
4	
7	
5	
10	
1	
8	
7	
2	
10	
5	
6	
7	
11	
5	
5	
7	
10	
3	
10	
7	
9	
2	
6	
9	
11	
3	
8	
5	
8	
7	
7	
8	
9	
12	
8	
6	
2	
8	
11	
7	
3	
6	
3	
3	
7	
7	
5	
12	
4	
4	
3	
6	
3	
8	
11	
7	
10	
5	
5	
4	
6	
10	
5	
9	
7	
6	
7	
6	
5	
7	
9	
9	
7	
7	
5	
5	
5	
6	
9	
7	
6	
12	
6	
8	
4	
3	
6	
9	
5	
15	
7	
4	
7	
8	
3	
6	
8	
3	
6	
5	
10	
6	
9	
12	
9	
7	
7	
13	
2	
4	
5	
7	
10	
5	
6	
6	
9	
9	
5	
4	
5	
10	
5	
6	
7	
5	
4	
8	
6	
7	
9	
4	
7	
6	
4	
12	
4	
6	
8	
6	
10	
5	
7	
8	
9	
8	
8	
8	
3	
5	
5	
11	
6	
3	
4	
8	
5	
9	
6	
6	
10	
7	
6	
4	
7	
4	
5	
8	
7	
5	
9	
6	
10	
8	
5	
8	
7	
5	
4	
11	
8	
4	
8	
11	
5	
8	
12	
6	
4	
5	
10	
9	
7	
8	
7	
8	
9	
4	
7	
5	
4	
4	
9	
7	
7	
11	
8	
4	
6	
8	
1	
9	
8	
10	
10	
6	
5	
7	
4	
10	
2	
9	
7	
5	
5	
7	
3	
3	
8	
10	
6	
8	
5	
8	
11	
3	
6	
8	
2	
4	
6	
6	
9	
5	
9	
6	
7	
9	
2	
5	
5	
7	
3	
6	
6	
0	
4	
2	
7	
5	
6	
4	
4	
3	
10	
2	
4	
3	
8	
2	
6	
7	
3	
6	
3	
3	
10	
5	
13	
7	
4	
8	
6	
4	
7	
7	
5	
10	
5	
6	
7	
5	
9	
7	
9	
10	
8	
6	
9	
7	
11	
7	
3	
11	
5	
12	
4	
5	
7	
8	
7	
7	
5	
2	
5	
8	
4	
8	
5	
4	
12	
7	
10	
8	
11	
14	
5	
6	
5	
10	
9	
5	
5	
12	
5	
7	
7	
3	
3	
3	
5	
9	
1	
8	
8	
4	
7	
8	
11	
6	
5	
2	
5	
10	
9	
7	
8	
2	
7	
4	
10	
8	
8	
4	
7	
4	
9	
6	
5	
5	
5	
4	
6	
5	
6	
6	
5	
10	
4	
8	
3	
6	
10	
13	
7	
12	
1	
9	
6	
8	
8	
5	
9	
6	
3	
8	
2	
4	
7	
7	
7	
7	
4	
10	
3	
7	
5	
9	
8	
9	
6	
4	
12	
7	
9	
2	
8	
4	
2	
4	
5	
7	
2	
5	
5	
3	
5	
8	
6	
11	
11	
7	
9	
7	
10	
6	
8	
4	
7	
6	
5	
2	
9	
2	
8	
6	
4	
11	
6	
6	
9	
7	
7	
5	
9	
6	
7	
1	
7	
8	
4	
4	
8	
5	
6	
6	
3	
5	
6	
6	
5	
6	
7	
4	
11	
8	
3	
6	
7	
5	
5	
5	
9	
4	
6	
8	
6	
4	
9	
6	
10	
5	
7	
7	
9	
8	
4	
2	
5	
3	
5	
5	
8	
10	
4	
6	
10	
8	
8	
5	
7	
11	
4	
7	
11	
2	
5	
6	
9	
6	
8	
3	
8	
3	
9	
11	
9	
6	
9	
8	
3	
5	
4	
6	
10	
2	
11	
9	
0	
13	
7	
6	
6	
6	
9	
5	
10	
5	
3	
6	
4	
5	
9	
7	
6	
9	
7	
4	
6	
4	
5	
8	
4	
4	
2	
0	
5	
10	
9	
3	
10	
13	
7	
9	
5	
4	
8	
6	
8	
8	
4	
8	
8	
4	
5	
5	
6	
3	
6	
8	
5	
4	
5	
3	
4	
8	
5	
3	
6	
9	
8	
7	
11	
4	
6	
8	
6	
10	
8	
7	
4	
11	
4	
9	
5	
6	
11	
6	
6	
3	
8	
10	
6	
3	
6	
4	
4	
4	
9	
11	
7	
3	
5	
12	
8	
5	
13	
1	
4	
5	
6	
6	
8	
6	
6	
12	
4	
8	
8	
3	
6	
6	
5	
7	
7	
3	
5	
6	
5	
7	
7	
7	
5	
6	
5	
3	
2	
11	
12	
6	
10	
7	
9	
5	
4	
5	
5	
2	
5	
6	
12	
6	
9	
5	
7	
3	
6	
18	
11	
11	
10	
4	
3	
4	
9	
8	
9	
8	
2	
7	
6	
5	
10	
6	
4	
5	
2	
7	
5	
1	
7	
8	
5	
5	
7	
5	
4	
9	
4	
4	
8	
3	
4	
8	
5	
8	
6	
5	
5	
11	
6	
8	
1	
5	
6	
9	
4	
2	
5	
4	
12	
3	
7	
7	
15	
4	
3	
5	
4	
3	
7	
2	
5	
4	
7	
5	
6	
10	
3	
4	
7	
3	
9	
3	
5	
7	
4	
6	
7	
4	
8	
10	
7	
10	
2	
7	
5	
6	
8	
6	
4	
6	
2	
4	
6	
5	
1	
6	
7	
4	
7	
6	
5	
7	
2	
5	
2	
4	
8	
5	
2	
2	
7	
4	
5	
5	
6	
4	
8	
6	
6	
6	
4	
11	
10	
6	
5	
8	
5	
2	
4	
7	
3	
1	
6	
3	
3	
9	
8	
8	
10	
4	
5	
5	
3	
8	
8	
3	
9	
4	
4	
3	
7	
5	
6	
4	
7	
5	
9	
3	
4	
4	
4	
8	
4	
5	
4	
6	
5	
7	
9	
6	
5	
9	
4	
6	
8	
7	
4	
11	
4	
3	
4	
6	
4	
8	
5	
7	
4	
5	
7	
5	
2	
5	
5	
2	
5	
7	
3	
5	
5	
6	
10	
4	
3	
4	
6	
3	
1	
5	
8	
3	
2	
8	
10	
7	
9	
1	
3	
5	
3	
7	
4	
6	
11	
9	
6	
7	
5	
9	
7	
7	
4	
2	
5	
4	
4	
6	
8	
7	
4	
4	
2	
5	
3	
11	
3	
7	
4	
5	
9	
12	
4	
6	
5	
4	
5	
5	
12	
6	
6	
4	
12	
4	
2	
5	
6	
8	
6	
5	
5	
4	
7	
2	
3	
3	
1	
6	
8	
6	
4	
5	
6	
7	
5	
3	
6	
3	
6	
2	
4	
6	
4	
4	
6	
2	
5	
5	
4	
7	
8	
3	
3	
2	
5	
5	
6	
10	
6	
6	
9	
5	
5	
4	
5	
2	
7	
6	
9	
6	
3	
6	
3	
5	
1	
6	
5	
8	
7	
7	
10	
8	
11	
8	
7	
6	
10	
4	
2	
2	
3	
7	
6	
8	
2	
6	
4	
6	
10	
4	
3	
8	
6	
5	
6	
6	
7	
3	
7	
8	
5	
6	
3	
7	
2	
7	
6	
7	
5	
7	
4	
6	
6	
1	
7	
7	
7	
4	
2	
4	
5	
6	
4	
7	
9	
7	
4	
3	
3	
5	
4	
11	
3	
6	
5	
5	
5	
3	
6	
5	
2	
4	
6	
6	
9	
7	
5	
3	
9	
9	
1	
6	
3	
11	
6	
4	
5	
8	
2	
8	
4	
5	
9	
5	
5	
7	
7	
9	
3	
5	
7	
8	
6	
4	
6	
6	
8	
6	
11	
8	
8	
6	
12	
5	
4	
3	
4	
3	
5	
3	
5	
4	
3	
5	
6	
6	
4	
3	
3	
4	
1	
2	
3	
3	
6	
6	
9	
4	
8	
6	
5	
5	
7	
5	
2	
6	
8	
2	
6	
5	
5	
3	
3	
5	
10	
8	
7	
3	
8	
5	
4	
1	
5	
9	
5	
5	
5	
3	
4	
5	
9	
5	
2	
3	
3	
9	
4	
1	
4	
9	
8	
4	
6	
6	
2	
4	
3	
11	
3	
4	
2	
7	
5	
5	
10	
8	
4	
8	
10	
6	
4	
5	
6	
5	
7	
4	
5	
4	
8	
8	
3	
6	
8	
4	
4	
7	
4	
2	
4	
6	
4	
1	
4	
3	
7	
4	
3	
2	
9	
4	
6	
7	
10	
7	
3	
4	
5	
8	
6	
5	
4	
7	
5	
2	
2	
3	
3	
7	
1	
9	
5	
4	
5	
3	
10	
6	
5	
5	
8	
4	
8	
4	
4	
4	
6	
7	
5	
9	
7	
3	
5	
2	
4	
7	
7	
4	
7	
8	
4	
8	
6	
4	
6	
7	
3	
10	
3	
4	
9	
1	
3	
7	
5	
8	
9	
11	
7	
8	
4	
4	
5	
2	
4	
12	
5	
5	
1	
5	
9	
6	
7	
5	
6	
4	
9	
8	
2	
4	
7	
8	
10	
5	
1	
3	
8	
9	
2	
6	
6	
4	
5	
2	
4	
5	
3	
6	
5	
5	
3	
6	
5	
5	
5	
3	
11	
9	
5	
3	
4	
7	
5	
3	
5	
6	
7	
3	
4	
10	
1	
2	
3	
10	
4	
6	
5	
7	
1	
3	
7	
7	
5	
5	
4	
5	
3	
4	
4	
3	
7	
6	
3	
6	
4	
6	
3	
2	
3	
3	
6	
6	
7	
2	
5	
6	
3	
3	
6	
6	
1	
7	
8	
6	
6	
4	
2	
7	
3	
9	
4	
5	
5	
4	
6	
6	
5	
3	
1	
5	
4	
6	
4	
5	
3	
3	
8	
11	
2	
7	
6	
1	
9	
0	
5	
3	
4	
8	
4	
1	
2	
2	
5	
5	
2	
2	
6	
8	
6	
4	
1	
6	
7	
2	
2	
9	
5	
5	
6	
1	
4	
4	
10	
6	
8	
9	
2	
4	
6	
4	
9	
2	
5	
8	
2	
1	
5	
4	
3	
9	
4	
2	
4	
5	
2	
2	
3	
7	
7	
4	
8	
4	
6	
6	
9	
5	
5	
9	
3	
5	
3	
5	
3	
4	
4	
7	
5	
5	
3	
5	
9	
3	
9	
6	
6	
7	
8	
6	
3	
7	
3	
5	
4	
6	
3	
4	
7	
3	
5	
2	
2	
6	
6	
8	
1	
5	
4	
4	
5	
7	
6	
3	
5	
4	
6	
4	
5	
3	
3	
3	
7	
3	
2	
2	
4	
5	
4	
4	
5	
7	
12	
4	
1	
6	
6	
6	
2	
9	
3	
7	
5	
6	
8	
2	
3	
5	
3	
5	
1	
10	
5	
3	
4	
4	
4	
5	
2	
6	
5	
4	
2	
6	
8	
5	
6	
3	
7	
2	
6	
4	
5	
2	
6	
4	
5	
3	
12	
1	
4	
5	
2	
4	
6	
7	
4	
6	
0	
3	
3	
7	
4	
3	
5	
7	
2	
4	
4	
8	
5	
3	
1	
4	
3	
5	
1	
5	
4	
8	
5	
6	
8	
6	
5	
4	
6	
9	
2	
2	
4	
3	
4	
3	
3	
2	
8	
5	
4	
9	
8	
2	
3	
3	
6	
4	
8	
4	
4	
7	
2	
3	
7	
7	
6	
9	
10	
6	
3	
3	
5	
1	
7	
3	
2	
3	
8	
5	
1	
7	
5	
1	
6	
5	
3	
3	
2	
3	
7	
7	
3	
5	
2	
3	
5	
3	
3	
2	
5	
8	
10	
2	
8	
3	
7	
2	
6	
5	
1	
5	
10	
6	
7	
4	
6	
1	
5	
5	
6	
4	
4	
3	
2	
5	
3	
5	
5	
2	
4	
1	
9	
4	
6	
2	
4	
3	
3	
6	
3	
4	
3	
7	
3	
6	
4	
4	
3	
5	
5	
7	
4	
5	
7	
7	
2	
7	
2	
3	
8	
4	
6	
6	
4	
6	
4	
4	
3	
7	
4	
6	
4	
3	
3	
8	
4	
7	
4	
2	
4	
4	
4	
4	
1	
4	
3	
3	
4	
1	
5	
1	
2	
6	
3	
4	
5	
7	
3	
6	
7	
