#PicoHarp 300  Histogram Data			03/27/2023 12:55:35 PM
#channels per curve
15625
#display curve no.
0	
#memory block no.
0	
#ns/channel
0.1280	
#counts
3	
1	
3	
1	
2	
5	
3	
3	
2	
5	
1	
3	
2	
1	
2	
2	
0	
1	
1	
2	
4	
2	
3	
1	
6	
1	
1	
0	
1	
3	
0	
3	
5	
2	
2	
3	
2	
2	
4	
2	
3	
1	
2	
1	
0	
0	
1	
1	
4	
1	
4	
4	
2	
3	
0	
3	
1	
4	
3	
1	
0	
5	
3	
3	
4	
1	
2	
7	
21	
33	
84	
106	
162	
252	
346	
408	
434	
467	
489	
500	
493	
494	
480	
490	
486	
442	
469	
470	
468	
442	
444	
426	
438	
432	
464	
444	
399	
431	
454	
442	
414	
410	
434	
415	
403	
418	
404	
357	
354	
376	
443	
349	
424	
397	
386	
367	
398	
388	
332	
365	
369	
368	
335	
371	
363	
380	
370	
335	
377	
372	
339	
343	
346	
306	
348	
336	
309	
327	
309	
336	
340	
337	
317	
301	
319	
330	
307	
303	
328	
315	
338	
296	
303	
289	
300	
307	
298	
325	
285	
313	
288	
313	
305	
279	
296	
330	
284	
299	
300	
280	
274	
269	
313	
309	
271	
277	
279	
287	
275	
283	
293	
295	
277	
275	
266	
260	
242	
261	
252	
254	
268	
279	
241	
272	
274	
260	
253	
252	
255	
243	
243	
243	
230	
242	
250	
249	
255	
247	
239	
264	
250	
265	
238	
233	
230	
219	
245	
247	
266	
260	
240	
233	
277	
242	
224	
209	
201	
261	
220	
208	
223	
246	
248	
215	
222	
208	
213	
257	
256	
227	
188	
222	
228	
216	
208	
207	
219	
223	
215	
244	
179	
183	
218	
217	
200	
220	
189	
212	
223	
202	
203	
209	
227	
209	
217	
186	
206	
225	
192	
214	
192	
201	
180	
185	
211	
177	
201	
185	
221	
184	
211	
195	
188	
189	
198	
199	
189	
186	
191	
190	
160	
188	
181	
193	
188	
180	
168	
196	
205	
188	
164	
195	
166	
188	
176	
189	
188	
157	
163	
172	
194	
186	
171	
162	
182	
193	
202	
169	
165	
170	
159	
161	
189	
170	
179	
159	
154	
159	
158	
160	
173	
158	
165	
180	
156	
176	
149	
171	
166	
161	
145	
170	
165	
147	
159	
150	
162	
148	
164	
160	
160	
156	
169	
162	
155	
148	
153	
174	
173	
166	
152	
161	
154	
171	
172	
165	
145	
149	
142	
161	
152	
136	
145	
152	
168	
132	
162	
141	
138	
118	
152	
157	
136	
159	
140	
127	
133	
149	
139	
143	
146	
163	
132	
133	
143	
142	
119	
143	
145	
148	
155	
158	
155	
127	
143	
139	
138	
148	
144	
123	
141	
117	
130	
143	
138	
125	
138	
148	
138	
135	
133	
134	
142	
145	
124	
121	
133	
134	
119	
137	
120	
121	
138	
134	
150	
131	
130	
135	
119	
146	
132	
139	
146	
133	
127	
131	
133	
128	
140	
126	
134	
146	
141	
139	
117	
120	
138	
138	
146	
97	
115	
149	
129	
130	
137	
116	
125	
130	
142	
135	
123	
126	
129	
136	
114	
125	
125	
148	
121	
124	
122	
121	
115	
113	
110	
135	
124	
129	
93	
128	
108	
107	
117	
133	
128	
128	
108	
126	
109	
124	
124	
126	
125	
110	
104	
113	
119	
100	
115	
116	
107	
116	
116	
97	
110	
108	
103	
107	
113	
96	
132	
127	
110	
114	
96	
121	
112	
109	
100	
103	
85	
96	
121	
117	
132	
93	
112	
126	
102	
109	
101	
100	
100	
100	
96	
105	
98	
88	
115	
106	
118	
115	
106	
115	
111	
116	
92	
78	
100	
105	
93	
105	
109	
90	
91	
113	
122	
81	
96	
94	
95	
105	
103	
101	
104	
98	
101	
101	
108	
115	
103	
118	
121	
105	
92	
102	
73	
106	
96	
105	
83	
93	
133	
90	
91	
93	
96	
105	
94	
82	
101	
107	
89	
93	
99	
81	
103	
82	
81	
99	
91	
111	
93	
119	
87	
96	
103	
89	
114	
107	
82	
92	
102	
93	
92	
83	
86	
90	
103	
100	
101	
90	
91	
92	
104	
84	
106	
91	
79	
106	
80	
94	
111	
74	
102	
89	
80	
87	
87	
95	
88	
78	
68	
86	
82	
90	
84	
88	
97	
96	
91	
91	
89	
94	
68	
90	
92	
98	
90	
97	
91	
84	
79	
99	
79	
85	
92	
78	
76	
77	
76	
98	
78	
83	
85	
90	
95	
67	
83	
100	
79	
96	
86	
80	
88	
79	
94	
77	
106	
80	
97	
92	
79	
82	
109	
84	
97	
86	
100	
103	
75	
79	
92	
92	
84	
97	
89	
71	
62	
75	
77	
80	
86	
87	
83	
82	
80	
89	
70	
62	
93	
72	
84	
74	
85	
71	
73	
89	
80	
71	
78	
90	
75	
86	
88	
80	
86	
81	
88	
67	
75	
73	
78	
75	
75	
82	
81	
69	
69	
70	
82	
86	
81	
89	
75	
83	
88	
73	
68	
88	
67	
82	
70	
78	
65	
70	
80	
69	
80	
64	
63	
77	
76	
71	
81	
86	
75	
68	
84	
65	
65	
69	
75	
72	
63	
79	
52	
73	
71	
53	
65	
85	
64	
71	
75	
73	
72	
84	
61	
64	
96	
63	
63	
64	
88	
58	
87	
83	
69	
74	
75	
66	
58	
61	
61	
80	
89	
62	
95	
76	
66	
64	
73	
69	
55	
74	
54	
67	
65	
74	
69	
63	
67	
59	
79	
73	
69	
69	
72	
75	
75	
79	
60	
55	
64	
81	
66	
66	
73	
65	
64	
67	
70	
68	
77	
65	
58	
58	
66	
71	
63	
50	
79	
64	
74	
73	
71	
63	
71	
74	
81	
42	
69	
69	
72	
66	
69	
65	
68	
65	
58	
65	
50	
73	
71	
62	
77	
69	
84	
65	
50	
72	
70	
72	
75	
62	
56	
55	
68	
75	
74	
74	
71	
66	
80	
64	
65	
75	
67	
64	
62	
59	
59	
78	
49	
70	
64	
58	
69	
73	
63	
54	
69	
90	
66	
68	
68	
80	
68	
68	
66	
52	
60	
44	
59	
64	
70	
59	
66	
57	
69	
58	
65	
67	
77	
51	
52	
57	
70	
68	
42	
62	
66	
52	
69	
60	
51	
67	
65	
58	
69	
65	
58	
59	
78	
65	
75	
44	
63	
55	
62	
64	
71	
61	
54	
52	
66	
60	
58	
65	
59	
55	
63	
55	
60	
56	
51	
67	
65	
52	
66	
59	
54	
66	
52	
57	
65	
63	
47	
65	
72	
56	
59	
54	
67	
60	
63	
38	
83	
51	
56	
50	
65	
57	
58	
71	
70	
62	
52	
49	
43	
76	
55	
51	
45	
52	
48	
60	
65	
48	
53	
51	
65	
48	
67	
57	
61	
58	
46	
72	
57	
61	
55	
59	
65	
54	
65	
61	
57	
50	
53	
47	
63	
44	
52	
53	
54	
54	
54	
51	
51	
72	
50	
59	
55	
51	
47	
58	
48	
54	
54	
48	
39	
67	
49	
51	
52	
52	
60	
57	
58	
44	
58	
51	
68	
70	
52	
53	
81	
54	
47	
44	
56	
57	
58	
46	
59	
55	
39	
66	
48	
64	
36	
55	
44	
45	
47	
54	
45	
49	
65	
64	
44	
59	
64	
49	
58	
50	
60	
59	
61	
52	
54	
57	
44	
50	
66	
68	
52	
52	
54	
45	
44	
41	
59	
53	
57	
49	
57	
54	
41	
48	
49	
60	
52	
55	
50	
51	
65	
49	
42	
45	
57	
50	
55	
53	
58	
58	
59	
72	
53	
53	
41	
43	
52	
45	
52	
55	
53	
52	
58	
54	
44	
55	
45	
60	
44	
56	
59	
53	
48	
45	
49	
43	
43	
40	
58	
40	
47	
43	
43	
45	
52	
53	
58	
51	
48	
48	
52	
47	
44	
46	
47	
42	
47	
42	
55	
43	
47	
55	
50	
44	
50	
47	
55	
49	
44	
48	
43	
47	
41	
51	
46	
45	
56	
46	
34	
46	
44	
37	
48	
45	
45	
31	
49	
49	
39	
53	
44	
49	
36	
63	
49	
42	
57	
38	
46	
33	
50	
48	
51	
53	
51	
50	
61	
56	
48	
48	
39	
53	
37	
48	
55	
41	
36	
52	
47	
41	
45	
47	
38	
42	
50	
57	
52	
33	
42	
28	
52	
47	
46	
51	
36	
45	
49	
40	
56	
40	
45	
54	
44	
45	
44	
49	
62	
51	
42	
36	
65	
54	
53	
50	
47	
55	
48	
55	
45	
40	
43	
39	
41	
41	
48	
51	
47	
47	
54	
51	
44	
51	
47	
41	
49	
48	
45	
52	
45	
48	
55	
48	
40	
40	
44	
47	
48	
40	
52	
45	
40	
49	
46	
28	
40	
36	
42	
40	
35	
44	
49	
44	
39	
52	
55	
35	
41	
47	
39	
40	
42	
37	
42	
42	
41	
54	
38	
47	
60	
44	
40	
57	
54	
46	
46	
46	
40	
52	
44	
39	
37	
38	
42	
38	
41	
43	
27	
47	
48	
39	
38	
44	
42	
40	
40	
43	
42	
56	
49	
40	
50	
44	
38	
48	
35	
41	
57	
44	
35	
35	
40	
41	
41	
43	
39	
46	
41	
53	
27	
41	
47	
49	
39	
34	
37	
43	
41	
42	
43	
41	
53	
41	
50	
47	
45	
38	
33	
43	
49	
42	
42	
42	
39	
52	
42	
29	
38	
47	
54	
52	
37	
37	
33	
41	
38	
39	
42	
43	
48	
43	
46	
46	
28	
48	
35	
33	
35	
41	
46	
50	
40	
43	
43	
42	
43	
43	
48	
37	
45	
53	
41	
53	
41	
47	
28	
52	
45	
33	
36	
40	
36	
32	
53	
36	
36	
39	
41	
42	
43	
50	
36	
34	
41	
42	
37	
39	
28	
42	
31	
41	
48	
46	
37	
30	
33	
35	
35	
30	
34	
36	
24	
42	
42	
48	
35	
37	
38	
28	
47	
26	
45	
32	
35	
37	
42	
42	
41	
33	
35	
38	
39	
34	
42	
43	
33	
35	
39	
37	
52	
34	
38	
36	
47	
28	
34	
37	
38	
34	
37	
46	
42	
35	
45	
32	
35	
35	
41	
35	
32	
49	
44	
42	
24	
44	
45	
48	
36	
35	
26	
36	
30	
32	
39	
34	
37	
35	
41	
36	
52	
31	
43	
38	
31	
45	
30	
39	
26	
36	
31	
34	
37	
32	
36	
25	
38	
34	
33	
35	
36	
29	
35	
36	
31	
36	
28	
25	
38	
37	
39	
34	
36	
39	
41	
38	
33	
35	
31	
37	
39	
42	
29	
36	
36	
41	
31	
35	
46	
21	
33	
42	
39	
39	
40	
37	
31	
25	
50	
41	
28	
46	
31	
38	
36	
31	
29	
35	
40	
34	
33	
32	
40	
37	
40	
31	
29	
41	
23	
29	
49	
34	
28	
27	
45	
26	
33	
29	
31	
33	
31	
19	
38	
53	
35	
34	
27	
33	
30	
34	
25	
38	
34	
31	
35	
27	
34	
33	
30	
31	
33	
30	
34	
27	
29	
33	
28	
31	
36	
36	
23	
40	
31	
36	
36	
23	
21	
20	
42	
34	
34	
38	
32	
43	
32	
33	
31	
37	
32	
40	
33	
34	
38	
33	
33	
37	
33	
34	
38	
37	
40	
27	
37	
40	
34	
36	
36	
28	
36	
38	
36	
26	
34	
35	
32	
27	
33	
41	
43	
25	
41	
35	
41	
30	
33	
37	
25	
34	
31	
34	
35	
27	
26	
43	
40	
39	
35	
33	
34	
42	
34	
20	
41	
31	
34	
33	
23	
44	
31	
37	
26	
32	
29	
28	
38	
29	
38	
27	
40	
34	
34	
30	
31	
49	
30	
44	
33	
29	
43	
33	
26	
44	
23	
23	
26	
33	
33	
30	
27	
33	
28	
27	
33	
32	
34	
46	
31	
29	
29	
27	
30	
34	
45	
31	
31	
34	
27	
36	
35	
33	
25	
21	
19	
39	
33	
24	
29	
22	
22	
38	
44	
26	
32	
41	
31	
35	
31	
29	
35	
34	
22	
30	
43	
25	
27	
32	
35	
26	
31	
38	
25	
26	
30	
27	
31	
37	
34	
28	
32	
32	
33	
29	
25	
33	
30	
17	
35	
34	
35	
36	
31	
26	
30	
29	
30	
35	
37	
20	
32	
22	
35	
39	
38	
40	
30	
36	
35	
27	
25	
24	
30	
31	
25	
35	
28	
24	
34	
28	
30	
41	
35	
27	
30	
28	
35	
35	
24	
29	
32	
30	
30	
29	
26	
35	
28	
20	
33	
30	
31	
22	
31	
21	
21	
46	
29	
26	
38	
28	
35	
34	
33	
33	
25	
30	
35	
26	
35	
34	
30	
30	
29	
23	
38	
27	
23	
24	
22	
34	
30	
31	
29	
36	
25	
25	
23	
29	
21	
37	
25	
25	
28	
27	
31	
41	
31	
25	
38	
32	
32	
26	
23	
22	
25	
33	
35	
33	
29	
27	
36	
30	
36	
34	
14	
30	
25	
21	
30	
25	
32	
26	
24	
31	
30	
41	
23	
24	
32	
28	
24	
23	
37	
27	
32	
27	
35	
35	
28	
35	
36	
24	
37	
27	
30	
28	
36	
24	
31	
26	
25	
25	
20	
23	
37	
27	
33	
36	
17	
31	
27	
30	
33	
28	
34	
26	
24	
26	
35	
33	
38	
27	
20	
28	
32	
29	
26	
22	
27	
20	
21	
33	
36	
32	
30	
30	
29	
24	
25	
33	
34	
27	
31	
22	
35	
16	
31	
25	
39	
30	
20	
28	
42	
29	
29	
34	
26	
24	
34	
25	
26	
26	
19	
22	
22	
27	
27	
32	
27	
18	
32	
28	
26	
24	
23	
35	
18	
32	
29	
20	
27	
29	
27	
28	
23	
31	
27	
29	
23	
22	
19	
21	
25	
29	
36	
29	
29	
26	
28	
22	
24	
23	
26	
29	
33	
22	
25	
31	
24	
17	
27	
18	
29	
32	
31	
27	
15	
25	
29	
15	
30	
21	
36	
29	
24	
28	
26	
25	
21	
22	
35	
26	
30	
22	
24	
30	
31	
29	
22	
28	
18	
25	
33	
27	
28	
20	
31	
17	
31	
17	
27	
24	
15	
28	
29	
21	
27	
25	
24	
26	
27	
25	
26	
26	
26	
25	
23	
30	
24	
26	
26	
25	
27	
18	
31	
23	
23	
19	
23	
23	
28	
30	
21	
24	
30	
30	
34	
29	
28	
34	
26	
28	
23	
23	
22	
27	
24	
27	
30	
22	
23	
31	
23	
33	
30	
25	
23	
30	
27	
28	
32	
29	
25	
27	
23	
21	
25	
22	
26	
26	
27	
26	
31	
19	
18	
26	
35	
30	
28	
25	
30	
22	
26	
20	
33	
27	
26	
22	
21	
29	
27	
26	
25	
30	
28	
21	
30	
18	
26	
24	
20	
20	
20	
19	
23	
38	
20	
27	
29	
25	
30	
23	
16	
31	
20	
23	
25	
28	
22	
31	
25	
32	
34	
26	
22	
29	
33	
29	
25	
28	
24	
19	
28	
24	
19	
25	
20	
33	
33	
31	
23	
21	
37	
24	
18	
30	
25	
26	
27	
29	
26	
30	
20	
22	
27	
29	
24	
20	
17	
15	
30	
18	
22	
30	
25	
20	
24	
24	
32	
31	
18	
18	
29	
27	
20	
20	
24	
24	
20	
31	
26	
33	
16	
33	
20	
29	
16	
21	
22	
26	
26	
34	
22	
30	
24	
26	
26	
25	
24	
17	
22	
29	
26	
28	
18	
30	
28	
24	
18	
27	
18	
22	
14	
28	
34	
25	
22	
30	
12	
19	
22	
19	
24	
32	
22	
21	
32	
28	
27	
25	
17	
23	
21	
25	
17	
22	
21	
28	
24	
14	
30	
22	
32	
28	
26	
23	
27	
31	
20	
26	
20	
21	
21	
21	
24	
23	
18	
27	
28	
22	
22	
20	
30	
18	
21	
21	
32	
24	
13	
25	
21	
20	
15	
24	
22	
27	
17	
28	
18	
25	
24	
21	
19	
26	
22	
15	
26	
22	
20	
13	
33	
13	
23	
17	
29	
22	
20	
21	
29	
22	
19	
19	
22	
27	
20	
15	
26	
16	
33	
30	
22	
24	
14	
25	
16	
25	
18	
26	
21	
23	
18	
23	
23	
25	
25	
35	
16	
17	
20	
24	
30	
21	
26	
19	
29	
27	
17	
27	
25	
18	
27	
27	
28	
24	
21	
20	
25	
21	
18	
21	
18	
19	
24	
31	
26	
22	
22	
24	
30	
20	
19	
25	
15	
22	
19	
17	
23	
26	
24	
16	
21	
21	
19	
22	
24	
18	
27	
14	
17	
23	
22	
29	
18	
19	
25	
23	
24	
17	
24	
21	
24	
22	
20	
31	
21	
19	
23	
20	
26	
18	
29	
15	
27	
18	
19	
23	
24	
14	
20	
16	
24	
19	
28	
33	
17	
27	
23	
23	
16	
19	
26	
14	
22	
20	
27	
22	
24	
14	
24	
22	
17	
26	
13	
21	
18	
23	
30	
20	
23	
22	
22	
28	
21	
29	
18	
17	
23	
25	
15	
29	
24	
26	
27	
23	
22	
30	
18	
17	
25	
17	
22	
23	
16	
23	
30	
18	
26	
23	
24	
22	
22	
22	
18	
12	
18	
12	
24	
22	
15	
21	
19	
26	
27	
14	
15	
18	
23	
25	
19	
23	
22	
19	
22	
22	
31	
23	
24	
18	
22	
20	
20	
23	
23	
26	
27	
27	
16	
22	
19	
21	
15	
20	
21	
22	
23	
14	
28	
13	
21	
28	
25	
19	
17	
20	
26	
25	
22	
19	
25	
25	
23	
23	
17	
28	
12	
20	
16	
22	
19	
29	
24	
22	
18	
21	
19	
19	
25	
20	
16	
22	
21	
26	
13	
21	
18	
17	
22	
18	
21	
19	
23	
26	
14	
20	
19	
21	
26	
27	
19	
21	
23	
12	
24	
18	
13	
22	
25	
19	
24	
21	
22	
15	
21	
17	
20	
15	
21	
16	
17	
22	
17	
16	
23	
18	
19	
22	
24	
19	
18	
16	
18	
18	
22	
25	
25	
17	
14	
17	
16	
16	
14	
18	
20	
25	
24	
17	
27	
23	
23	
27	
24	
24	
25	
25	
31	
24	
33	
19	
19	
23	
16	
12	
19	
21	
16	
15	
15	
24	
16	
24	
13	
22	
25	
21	
26	
24	
19	
30	
34	
10	
17	
29	
12	
19	
33	
18	
27	
21	
20	
14	
17	
17	
12	
16	
24	
24	
18	
18	
17	
20	
15	
17	
23	
20	
14	
20	
11	
21	
24	
24	
14	
34	
13	
18	
19	
14	
20	
18	
17	
25	
21	
19	
23	
14	
19	
22	
19	
12	
24	
23	
24	
20	
23	
17	
19	
19	
25	
20	
21	
25	
23	
19	
27	
18	
20	
13	
17	
16	
16	
23	
17	
18	
15	
28	
12	
19	
23	
16	
17	
16	
21	
17	
23	
20	
22	
15	
16	
16	
16	
24	
23	
14	
24	
23	
16	
13	
19	
22	
24	
17	
28	
17	
20	
15	
21	
20	
16	
28	
14	
15	
25	
28	
14	
25	
14	
16	
16	
19	
33	
25	
21	
20	
19	
17	
17	
12	
23	
34	
19	
27	
15	
22	
21	
14	
15	
23	
20	
12	
16	
24	
24	
23	
25	
19	
20	
17	
22	
18	
23	
22	
22	
15	
17	
16	
16	
23	
16	
13	
18	
27	
26	
15	
20	
15	
23	
12	
18	
23	
19	
25	
20	
22	
22	
20	
12	
23	
20	
20	
22	
16	
21	
12	
26	
13	
14	
15	
17	
12	
25	
15	
29	
17	
15	
25	
14	
23	
17	
17	
19	
18	
15	
21	
22	
17	
19	
16	
19	
25	
15	
18	
13	
13	
24	
21	
23	
19	
21	
26	
21	
17	
14	
24	
21	
20	
18	
13	
22	
30	
26	
21	
15	
22	
17	
16	
16	
20	
17	
17	
20	
23	
12	
13	
13	
16	
23	
27	
16	
12	
13	
14	
22	
17	
26	
22	
13	
15	
18	
22	
17	
17	
21	
14	
15	
12	
20	
19	
17	
13	
23	
21	
17	
23	
22	
23	
17	
14	
13	
16	
19	
12	
15	
23	
16	
13	
11	
18	
15	
13	
13	
9	
20	
15	
19	
19	
18	
19	
17	
14	
16	
21	
19	
18	
17	
21	
32	
26	
18	
19	
15	
17	
12	
18	
22	
18	
17	
11	
12	
19	
18	
16	
18	
17	
16	
17	
20	
20	
18	
12	
15	
11	
13	
10	
13	
20	
19	
18	
13	
18	
18	
12	
19	
14	
14	
19	
19	
13	
21	
21	
11	
23	
12	
19	
16	
15	
16	
13	
26	
19	
25	
16	
17	
19	
23	
17	
23	
20	
16	
18	
15	
19	
16	
16	
20	
14	
19	
14	
16	
21	
20	
19	
10	
20	
19	
23	
24	
11	
13	
24	
18	
6	
16	
13	
17	
18	
13	
18	
15	
15	
19	
18	
13	
23	
9	
24	
28	
13	
24	
13	
19	
17	
9	
17	
9	
14	
15	
27	
16	
14	
18	
28	
23	
17	
20	
22	
11	
17	
16	
19	
12	
14	
18	
17	
19	
13	
10	
14	
16	
17	
10	
12	
13	
20	
25	
22	
19	
25	
22	
13	
14	
22	
21	
16	
9	
19	
14	
17	
18	
14	
17	
20	
22	
24	
23	
21	
17	
12	
18	
17	
21	
22	
13	
10	
16	
18	
21	
14	
12	
10	
12	
17	
13	
19	
17	
26	
14	
22	
16	
14	
18	
16	
14	
16	
17	
15	
23	
23	
17	
20	
21	
12	
17	
18	
17	
19	
14	
10	
16	
16	
19	
18	
16	
14	
21	
11	
21	
28	
17	
15	
13	
15	
12	
15	
12	
10	
18	
18	
20	
14	
14	
18	
19	
20	
8	
19	
17	
9	
9	
14	
16	
12	
17	
18	
17	
17	
18	
23	
21	
12	
15	
19	
18	
15	
8	
17	
15	
19	
9	
15	
18	
16	
17	
15	
20	
12	
12	
18	
17	
11	
14	
9	
18	
13	
19	
27	
25	
17	
17	
21	
8	
17	
15	
16	
12	
20	
18	
16	
13	
11	
18	
14	
16	
13	
16	
12	
16	
20	
15	
13	
15	
12	
17	
18	
14	
17	
18	
14	
14	
12	
20	
20	
14	
12	
15	
22	
16	
16	
19	
14	
7	
15	
12	
18	
13	
20	
19	
14	
14	
25	
12	
18	
16	
22	
14	
17	
16	
17	
14	
13	
16	
16	
12	
18	
11	
20	
8	
15	
20	
16	
10	
19	
14	
17	
20	
17	
12	
19	
15	
18	
18	
13	
10	
14	
20	
16	
10	
12	
16	
12	
16	
15	
15	
14	
12	
12	
12	
11	
24	
18	
22	
12	
15	
18	
14	
17	
17	
10	
14	
16	
17	
15	
14	
19	
18	
14	
12	
14	
13	
11	
16	
15	
13	
14	
9	
19	
14	
19	
11	
10	
13	
12	
11	
17	
15	
15	
27	
15	
11	
18	
17	
19	
15	
16	
12	
11	
21	
18	
14	
11	
16	
13	
15	
13	
19	
20	
12	
14	
23	
20	
11	
13	
17	
17	
14	
20	
12	
21	
15	
20	
15	
14	
18	
18	
15	
13	
13	
17	
10	
15	
15	
15	
13	
17	
14	
10	
15	
14	
18	
19	
10	
18	
14	
11	
15	
16	
16	
12	
13	
18	
12	
13	
14	
11	
18	
16	
17	
23	
16	
13	
21	
12	
11	
15	
9	
12	
17	
12	
19	
14	
14	
22	
19	
23	
14	
15	
15	
14	
17	
15	
17	
15	
20	
7	
23	
14	
14	
16	
23	
10	
11	
23	
12	
17	
20	
17	
17	
17	
18	
15	
17	
17	
20	
18	
10	
14	
12	
22	
17	
14	
12	
14	
14	
28	
19	
17	
21	
27	
11	
14	
23	
16	
15	
14	
13	
13	
19	
16	
15	
13	
15	
18	
15	
11	
19	
9	
13	
18	
14	
14	
9	
22	
12	
14	
18	
21	
16	
20	
18	
12	
13	
7	
15	
14	
13	
13	
14	
9	
14	
12	
11	
19	
14	
14	
18	
17	
16	
14	
20	
13	
16	
10	
11	
13	
14	
25	
11	
13	
10	
18	
17	
20	
12	
16	
13	
11	
13	
16	
17	
9	
15	
18	
14	
16	
21	
11	
12	
19	
7	
17	
22	
9	
13	
15	
5	
8	
9	
18	
11	
12	
17	
11	
11	
14	
12	
15	
24	
7	
12	
14	
14	
11	
8	
17	
12	
11	
16	
15	
13	
13	
9	
10	
17	
13	
16	
6	
16	
10	
21	
6	
21	
13	
10	
11	
18	
21	
13	
18	
12	
15	
14	
16	
16	
18	
18	
8	
9	
15	
14	
19	
18	
16	
13	
7	
18	
17	
12	
9	
14	
14	
7	
15	
10	
17	
12	
13	
20	
18	
16	
9	
20	
12	
12	
13	
8	
14	
10	
15	
14	
9	
20	
13	
18	
9	
15	
15	
15	
11	
16	
14	
17	
13	
13	
16	
14	
29	
20	
15	
12	
22	
10	
16	
14	
11	
12	
12	
13	
12	
12	
14	
9	
11	
14	
13	
16	
12	
8	
11	
19	
7	
18	
18	
13	
10	
15	
11	
12	
21	
8	
11	
20	
18	
15	
15	
15	
21	
7	
17	
18	
14	
16	
7	
21	
19	
10	
14	
13	
17	
16	
12	
13	
22	
17	
13	
11	
18	
10	
13	
14	
22	
14	
13	
17	
9	
17	
12	
16	
17	
14	
14	
21	
9	
17	
10	
18	
17	
11	
15	
15	
14	
13	
11	
11	
13	
15	
8	
18	
9	
16	
19	
10	
15	
8	
11	
11	
19	
19	
17	
14	
13	
10	
8	
13	
13	
14	
13	
14	
11	
9	
13	
11	
12	
9	
17	
9	
15	
13	
5	
14	
9	
10	
10	
11	
11	
24	
5	
13	
10	
8	
10	
14	
14	
18	
14	
18	
14	
14	
11	
16	
11	
13	
11	
12	
18	
16	
10	
16	
10	
11	
13	
14	
18	
23	
16	
15	
14	
14	
12	
11	
13	
11	
15	
13	
16	
9	
15	
11	
12	
15	
12	
15	
11	
5	
10	
17	
12	
13	
10	
12	
10	
9	
10	
16	
15	
15	
12	
7	
15	
9	
14	
19	
14	
16	
9	
18	
15	
17	
9	
10	
16	
10	
17	
10	
13	
9	
17	
12	
21	
9	
13	
13	
15	
9	
12	
17	
12	
15	
20	
14	
15	
12	
16	
7	
7	
11	
10	
16	
16	
17	
12	
18	
23	
9	
19	
13	
6	
17	
14	
9	
11	
13	
9	
5	
8	
10	
7	
13	
11	
15	
12	
7	
14	
11	
12	
11	
10	
5	
16	
15	
21	
11	
20	
10	
14	
14	
19	
11	
13	
12	
14	
15	
9	
13	
14	
9	
14	
19	
14	
17	
14	
5	
16	
14	
11	
7	
13	
12	
17	
12	
16	
18	
13	
13	
11	
10	
12	
14	
16	
16	
19	
13	
9	
7	
7	
21	
17	
11	
12	
15	
12	
13	
11	
11	
7	
18	
13	
12	
9	
12	
6	
13	
21	
11	
11	
12	
13	
12	
8	
13	
14	
13	
14	
9	
12	
11	
18	
15	
13	
12	
15	
16	
5	
13	
14	
13	
25	
10	
12	
14	
18	
15	
13	
9	
13	
9	
16	
15	
14	
10	
16	
16	
13	
17	
14	
12	
13	
8	
10	
12	
11	
15	
14	
11	
10	
16	
16	
14	
12	
10	
14	
7	
8	
14	
7	
12	
13	
15	
8	
9	
11	
15	
18	
11	
13	
18	
9	
12	
13	
7	
8	
10	
10	
22	
18	
14	
16	
10	
9	
18	
14	
12	
18	
11	
12	
8	
10	
7	
17	
14	
6	
17	
12	
12	
13	
8	
9	
11	
12	
10	
12	
10	
16	
13	
11	
14	
5	
13	
10	
8	
8	
13	
13	
14	
17	
16	
11	
11	
12	
14	
7	
5	
9	
6	
10	
12	
14	
11	
14	
15	
14	
13	
12	
11	
12	
6	
7	
11	
9	
12	
10	
9	
20	
7	
15	
18	
9	
11	
20	
5	
9	
12	
10	
10	
3	
12	
5	
18	
10	
12	
13	
8	
17	
7	
11	
8	
8	
10	
13	
7	
14	
10	
15	
13	
10	
11	
13	
3	
7	
13	
12	
10	
17	
12	
11	
9	
17	
11	
10	
13	
9	
15	
17	
14	
10	
11	
16	
13	
12	
13	
7	
18	
12	
22	
11	
7	
8	
16	
9	
14	
17	
11	
11	
6	
9	
12	
9	
14	
10	
14	
12	
10	
6	
13	
17	
16	
12	
13	
13	
14	
8	
14	
13	
8	
14	
10	
22	
13	
13	
8	
8	
11	
7	
9	
15	
13	
14	
5	
15	
8	
14	
17	
15	
17	
11	
15	
15	
17	
11	
16	
10	
8	
11	
9	
13	
17	
9	
11	
13	
6	
12	
7	
13	
13	
9	
15	
10	
17	
12	
12	
7	
18	
10	
6	
9	
13	
9	
10	
10	
13	
14	
12	
12	
8	
15	
11	
10	
9	
11	
14	
13	
15	
11	
11	
18	
10	
17	
11	
8	
12	
16	
13	
12	
13	
8	
16	
15	
14	
9	
11	
12	
8	
16	
8	
11	
9	
8	
11	
13	
12	
12	
10	
6	
16	
7	
21	
16	
10	
11	
13	
8	
7	
9	
13	
8	
9	
10	
15	
6	
10	
9	
8	
9	
13	
11	
11	
10	
10	
13	
9	
14	
10	
10	
12	
7	
6	
15	
15	
17	
6	
10	
7	
10	
13	
14	
9	
11	
8	
9	
7	
10	
19	
10	
7	
12	
9	
6	
9	
14	
15	
12	
13	
8	
9	
9	
9	
10	
11	
13	
12	
13	
13	
9	
9	
12	
11	
19	
11	
10	
9	
11	
15	
16	
10	
6	
12	
2	
9	
3	
13	
11	
12	
10	
17	
13	
13	
14	
8	
10	
5	
11	
11	
12	
11	
11	
9	
8	
13	
10	
12	
8	
12	
16	
10	
10	
11	
9	
9	
8	
16	
8	
16	
8	
16	
11	
12	
7	
10	
17	
12	
16	
15	
14	
10	
7	
12	
15	
7	
11	
11	
10	
7	
10	
8	
15	
9	
15	
9	
17	
15	
7	
10	
8	
9	
7	
6	
11	
12	
6	
6	
18	
10	
10	
10	
9	
11	
15	
11	
10	
10	
8	
13	
11	
15	
15	
14	
15	
12	
13	
12	
8	
15	
13	
12	
11	
4	
10	
7	
6	
7	
8	
8	
7	
8	
6	
13	
11	
14	
21	
10	
10	
14	
12	
9	
8	
8	
9	
16	
9	
14	
6	
8	
11	
11	
7	
9	
13	
8	
8	
10	
10	
9	
10	
14	
10	
8	
13	
16	
12	
12	
12	
17	
13	
13	
7	
10	
10	
10	
10	
14	
7	
7	
8	
7	
12	
19	
11	
14	
10	
13	
8	
14	
6	
10	
9	
11	
11	
11	
9	
12	
14	
10	
9	
11	
11	
6	
7	
15	
9	
11	
7	
12	
14	
14	
15	
7	
9	
9	
12	
14	
10	
17	
9	
15	
13	
6	
10	
14	
3	
7	
12	
7	
5	
7	
14	
17	
9	
6	
8	
6	
11	
15	
3	
16	
10	
10	
11	
8	
9	
10	
11	
13	
13	
12	
13	
12	
9	
10	
8	
11	
13	
8	
14	
11	
5	
11	
19	
5	
15	
9	
8	
15	
12	
9	
8	
6	
8	
7	
15	
10	
17	
10	
20	
9	
9	
8	
15	
17	
9	
15	
7	
7	
9	
8	
14	
9	
19	
11	
9	
12	
10	
8	
13	
14	
9	
8	
15	
9	
13	
9	
13	
6	
9	
13	
9	
10	
7	
12	
11	
9	
9	
10	
7	
10	
12	
6	
7	
11	
15	
9	
13	
8	
15	
8	
9	
13	
12	
14	
12	
9	
7	
8	
13	
11	
10	
3	
17	
12	
8	
9	
10	
15	
11	
8	
12	
8	
8	
10	
13	
6	
10	
11	
7	
10	
7	
12	
13	
17	
11	
11	
10	
12	
11	
13	
12	
4	
9	
9	
7	
13	
12	
8	
7	
12	
15	
9	
6	
9	
12	
7	
9	
13	
9	
6	
16	
8	
9	
14	
16	
20	
7	
6	
15	
13	
14	
10	
13	
11	
13	
9	
9	
9	
9	
7	
9	
10	
6	
10	
12	
12	
10	
7	
10	
7	
11	
13	
9	
10	
8	
10	
12	
6	
5	
13	
6	
4	
8	
4	
12	
10	
13	
12	
17	
11	
6	
8	
10	
10	
11	
17	
10	
6	
7	
7	
9	
9	
9	
10	
6	
9	
10	
13	
11	
7	
14	
9	
10	
10	
14	
9	
11	
8	
9	
7	
16	
7	
9	
9	
10	
13	
8	
11	
11	
6	
8	
10	
7	
8	
13	
13	
11	
5	
8	
11	
14	
10	
10	
11	
5	
11	
10	
6	
8	
4	
11	
7	
6	
15	
10	
6	
7	
15	
10	
11	
7	
9	
9	
15	
8	
9	
12	
7	
12	
12	
13	
12	
8	
11	
8	
10	
12	
12	
13	
6	
11	
19	
5	
12	
10	
12	
10	
23	
11	
9	
14	
13	
12	
9	
12	
9	
11	
5	
17	
11	
10	
11	
8	
11	
8	
6	
9	
4	
16	
12	
10	
9	
8	
10	
10	
12	
9	
4	
13	
11	
9	
9	
11	
14	
10	
3	
9	
12	
13	
12	
13	
14	
6	
9	
9	
12	
5	
10	
11	
13	
12	
13	
14	
10	
13	
12	
8	
10	
8	
9	
4	
16	
10	
11	
7	
8	
8	
7	
10	
7	
5	
8	
10	
12	
7	
4	
6	
5	
9	
14	
9	
2	
4	
13	
10	
7	
11	
5	
7	
7	
5	
6	
7	
10	
12	
6	
12	
9	
6	
13	
10	
12	
10	
9	
9	
6	
10	
6	
13	
9	
8	
10	
16	
11	
15	
9	
12	
4	
12	
7	
7	
7	
9	
10	
14	
12	
10	
9	
8	
6	
9	
7	
7	
6	
10	
7	
3	
7	
12	
12	
13	
8	
9	
4	
9	
7	
7	
11	
6	
8	
12	
6	
7	
6	
9	
13	
11	
4	
5	
15	
10	
11	
7	
11	
10	
18	
6	
10	
10	
6	
11	
10	
11	
7	
5	
13	
11	
9	
12	
7	
2	
16	
3	
16	
14	
13	
12	
9	
9	
13	
10	
12	
7	
13	
12	
14	
12	
10	
11	
8	
6	
6	
7	
13	
8	
8	
14	
8	
11	
13	
11	
7	
7	
5	
7	
13	
3	
5	
12	
13	
4	
4	
5	
5	
14	
10	
7	
6	
11	
5	
9	
8	
9	
7	
10	
8	
8	
5	
9	
4	
7	
3	
11	
13	
6	
12	
7	
8	
9	
11	
13	
6	
12	
9	
13	
9	
17	
15	
10	
8	
7	
8	
14	
14	
9	
17	
11	
8	
11	
6	
6	
8	
8	
15	
5	
14	
13	
8	
7	
10	
7	
8	
9	
8	
12	
7	
10	
13	
9	
11	
8	
7	
13	
7	
13	
13	
7	
15	
8	
13	
9	
8	
5	
9	
8	
8	
18	
10	
9	
8	
7	
10	
8	
5	
11	
6	
10	
8	
9	
10	
4	
7	
12	
7	
12	
7	
4	
10	
4	
10	
6	
3	
8	
10	
8	
5	
6	
8	
9	
11	
5	
11	
10	
9	
4	
12	
8	
9	
7	
11	
6	
13	
8	
7	
6	
8	
13	
6	
11	
13	
7	
7	
8	
9	
14	
9	
20	
9	
3	
11	
6	
8	
7	
10	
7	
6	
7	
8	
10	
7	
5	
8	
5	
9	
9	
6	
11	
8	
10	
7	
6	
4	
10	
8	
12	
6	
12	
9	
12	
10	
4	
7	
8	
6	
7	
10	
7	
9	
8	
7	
12	
9	
11	
14	
15	
7	
8	
8	
11	
14	
9	
9	
6	
12	
9	
8	
6	
12	
9	
8	
12	
9	
8	
6	
11	
6	
6	
13	
7	
15	
12	
8	
7	
8	
10	
7	
9	
7	
13	
7	
12	
10	
9	
7	
5	
12	
16	
9	
9	
7	
9	
12	
5	
13	
4	
3	
7	
7	
6	
9	
11	
9	
7	
7	
7	
11	
5	
10	
8	
8	
10	
7	
5	
12	
9	
9	
9	
14	
9	
9	
6	
8	
9	
10	
9	
5	
8	
9	
6	
9	
8	
8	
7	
7	
11	
11	
12	
6	
8	
5	
12	
9	
10	
9	
6	
9	
9	
7	
11	
12	
11	
6	
8	
6	
9	
8	
5	
6	
10	
7	
7	
12	
1	
7	
5	
4	
2	
9	
6	
9	
11	
10	
12	
9	
12	
4	
9	
6	
8	
3	
5	
7	
10	
15	
6	
8	
13	
7	
8	
3	
9	
10	
5	
7	
12	
2	
8	
11	
12	
10	
2	
9	
10	
5	
7	
8	
5	
6	
11	
15	
9	
6	
7	
13	
6	
14	
6	
12	
11	
5	
12	
15	
5	
7	
7	
4	
8	
8	
8	
7	
3	
14	
4	
10	
7	
7	
8	
6	
11	
7	
9	
8	
4	
10	
14	
5	
8	
5	
14	
9	
9	
5	
10	
10	
7	
6	
6	
11	
3	
10	
7	
7	
9	
13	
4	
8	
8	
10	
7	
11	
11	
5	
10	
8	
2	
5	
10	
4	
5	
8	
8	
10	
12	
11	
4	
11	
6	
8	
5	
9	
6	
11	
8	
11	
12	
6	
10	
12	
8	
9	
9	
7	
7	
5	
9	
11	
10	
5	
7	
6	
7	
6	
6	
12	
4	
10	
12	
5	
6	
5	
7	
4	
7	
10	
12	
7	
9	
7	
8	
8	
7	
6	
11	
5	
7	
11	
10	
5	
8	
13	
7	
9	
8	
10	
4	
9	
10	
6	
6	
8	
6	
7	
9	
5	
6	
10	
5	
8	
9	
9	
6	
12	
5	
9	
4	
8	
15	
9	
7	
7	
8	
8	
15	
7	
4	
5	
14	
8	
9	
10	
11	
6	
11	
3	
12	
15	
7	
8	
7	
8	
3	
10	
5	
5	
9	
5	
10	
5	
4	
5	
11	
10	
5	
7	
5	
9	
9	
7	
8	
7	
7	
13	
5	
9	
8	
7	
8	
6	
10	
7	
10	
12	
11	
6	
6	
4	
13	
6	
10	
9	
12	
8	
7	
4	
5	
3	
6	
6	
10	
8	
11	
8	
8	
14	
8	
2	
10	
9	
10	
7	
8	
11	
11	
12	
8	
6	
4	
5	
8	
8	
9	
7	
11	
10	
8	
7	
12	
7	
12	
7	
7	
7	
15	
9	
9	
5	
7	
4	
4	
9	
9	
7	
17	
5	
7	
4	
9	
9	
9	
15	
6	
3	
7	
5	
11	
5	
10	
4	
4	
3	
8	
9	
6	
6	
5	
2	
7	
11	
15	
7	
6	
3	
11	
9	
7	
5	
9	
2	
11	
6	
11	
11	
6	
8	
7	
8	
2	
11	
5	
10	
11	
4	
7	
3	
10	
11	
7	
4	
5	
8	
13	
8	
6	
4	
5	
11	
10	
10	
5	
4	
4	
8	
12	
4	
8	
3	
10	
5	
4	
8	
8	
4	
10	
7	
8	
9	
6	
6	
10	
6	
10	
9	
8	
8	
8	
4	
6	
10	
9	
12	
4	
3	
9	
10	
7	
8	
10	
7	
7	
10	
5	
10	
9	
3	
9	
10	
5	
11	
3	
7	
9	
8	
6	
8	
10	
6	
4	
6	
11	
12	
6	
7	
7	
11	
7	
7	
4	
8	
6	
6	
2	
10	
6	
6	
14	
11	
4	
7	
7	
10	
9	
8	
8	
10	
7	
15	
10	
5	
7	
11	
8	
5	
7	
10	
8	
7	
8	
9	
7	
10	
1	
8	
5	
11	
6	
9	
3	
4	
4	
12	
5	
5	
9	
2	
7	
10	
8	
10	
14	
8	
8	
3	
7	
5	
8	
9	
12	
3	
9	
13	
1	
7	
7	
9	
8	
11	
5	
13	
6	
10	
7	
10	
10	
7	
10	
5	
10	
7	
9	
8	
6	
7	
7	
9	
6	
4	
12	
4	
8	
11	
5	
6	
11	
12	
15	
10	
4	
11	
6	
6	
12	
10	
4	
6	
4	
6	
6	
7	
6	
9	
4	
8	
8	
9	
11	
4	
8	
7	
6	
9	
8	
8	
6	
5	
4	
8	
4	
9	
11	
8	
8	
4	
12	
6	
13	
6	
2	
6	
5	
7	
11	
5	
8	
6	
4	
7	
9	
11	
9	
11	
1	
9	
6	
5	
9	
6	
7	
6	
10	
3	
8	
12	
8	
8	
10	
6	
7	
15	
8	
4	
9	
8	
5	
10	
10	
5	
4	
4	
6	
10	
10	
8	
6	
7	
5	
9	
14	
8	
7	
9	
8	
6	
11	
6	
9	
8	
6	
7	
7	
12	
5	
7	
5	
11	
7	
11	
12	
1	
10	
6	
14	
6	
9	
5	
9	
8	
7	
4	
5	
9	
8	
5	
8	
6	
11	
9	
9	
3	
9	
8	
9	
7	
9	
4	
4	
10	
7	
6	
8	
5	
7	
8	
8	
6	
7	
7	
12	
2	
7	
8	
5	
11	
7	
7	
7	
6	
6	
8	
1	
7	
6	
12	
7	
9	
5	
12	
9	
9	
7	
9	
5	
6	
5	
3	
11	
1	
7	
4	
7	
10	
8	
10	
6	
9	
5	
11	
7	
8	
5	
2	
9	
8	
6	
15	
5	
7	
7	
7	
6	
4	
9	
7	
11	
1	
8	
3	
11	
4	
6	
5	
6	
11	
4	
7	
10	
6	
11	
5	
7	
8	
6	
5	
12	
7	
5	
6	
2	
8	
5	
8	
7	
9	
5	
10	
9	
4	
5	
8	
12	
4	
6	
9	
6	
4	
5	
6	
6	
5	
4	
5	
5	
5	
6	
9	
16	
10	
4	
7	
10	
9	
2	
8	
6	
3	
11	
7	
10	
5	
3	
12	
5	
10	
8	
11	
7	
10	
13	
6	
8	
7	
6	
5	
8	
10	
6	
6	
6	
6	
2	
7	
8	
4	
7	
6	
7	
6	
9	
3	
6	
5	
11	
4	
5	
7	
6	
8	
4	
7	
8	
8	
7	
8	
5	
2	
8	
11	
9	
6	
5	
4	
11	
7	
9	
8	
8	
4	
9	
5	
4	
9	
4	
12	
7	
11	
1	
6	
8	
7	
1	
8	
5	
13	
5	
5	
5	
3	
7	
7	
6	
4	
6	
5	
7	
7	
6	
10	
9	
6	
3	
10	
7	
6	
7	
3	
12	
5	
10	
8	
8	
6	
11	
10	
9	
12	
9	
11	
3	
7	
6	
6	
8	
2	
11	
7	
10	
7	
7	
5	
4	
7	
8	
11	
4	
3	
10	
4	
9	
6	
4	
10	
9	
10	
10	
13	
6	
3	
1	
10	
4	
7	
5	
5	
8	
6	
8	
8	
5	
2	
8	
8	
6	
7	
5	
12	
8	
8	
6	
7	
11	
6	
5	
4	
6	
7	
11	
7	
6	
7	
6	
8	
12	
7	
9	
8	
5	
6	
6	
4	
5	
5	
8	
2	
10	
7	
8	
11	
3	
14	
6	
10	
5	
8	
5	
9	
9	
4	
7	
5	
7	
8	
8	
8	
6	
5	
2	
3	
7	
4	
5	
8	
8	
5	
3	
9	
7	
6	
5	
8	
5	
4	
8	
5	
5	
6	
8	
5	
5	
7	
7	
8	
5	
4	
5	
5	
8	
9	
7	
8	
5	
10	
8	
9	
10	
8	
7	
12	
10	
4	
6	
5	
3	
4	
4	
4	
8	
3	
6	
13	
6	
6	
4	
2	
8	
8	
6	
11	
6	
5	
7	
6	
5	
9	
9	
9	
8	
8	
6	
4	
11	
7	
6	
5	
2	
10	
4	
3	
4	
8	
8	
6	
8	
3	
9	
4	
10	
6	
6	
11	
7	
8	
7	
12	
7	
2	
5	
7	
6	
8	
7	
6	
5	
6	
6	
6	
6	
8	
6	
6	
4	
7	
11	
6	
9	
8	
6	
6	
7	
5	
7	
5	
4	
9	
6	
10	
2	
8	
8	
5	
10	
9	
9	
5	
13	
5	
14	
9	
1	
3	
6	
6	
7	
7	
8	
5	
4	
7	
7	
4	
8	
5	
5	
7	
12	
5	
4	
5	
8	
3	
7	
8	
6	
2	
6	
6	
3	
4	
8	
4	
3	
6	
10	
6	
8	
9	
8	
5	
10	
11	
4	
9	
4	
6	
3	
7	
3	
8	
6	
4	
6	
4	
7	
6	
8	
4	
8	
7	
3	
6	
5	
9	
9	
9	
6	
0	
6	
4	
11	
9	
3	
7	
6	
6	
5	
9	
13	
8	
5	
7	
6	
4	
6	
10	
7	
9	
9	
5	
5	
5	
6	
3	
6	
7	
6	
6	
4	
10	
3	
6	
6	
6	
3	
8	
6	
4	
3	
8	
5	
5	
5	
4	
12	
3	
10	
6	
9	
3	
7	
12	
5	
7	
6	
4	
10	
14	
11	
3	
7	
5	
6	
13	
5	
4	
5	
6	
2	
6	
3	
3	
4	
5	
7	
8	
2	
6	
9	
8	
7	
5	
4	
6	
5	
8	
6	
7	
4	
7	
6	
6	
6	
6	
5	
7	
5	
8	
9	
5	
9	
9	
5	
8	
2	
6	
5	
6	
7	
5	
5	
4	
10	
7	
7	
5	
1	
7	
6	
5	
11	
6	
9	
5	
4	
9	
5	
9	
7	
4	
4	
8	
5	
3	
8	
7	
9	
8	
4	
11	
6	
8	
7	
5	
9	
6	
7	
3	
7	
4	
9	
8	
8	
4	
8	
1	
8	
6	
6	
4	
4	
6	
5	
4	
8	
6	
8	
10	
4	
8	
8	
5	
2	
5	
5	
4	
6	
8	
5	
5	
11	
8	
4	
5	
4	
7	
5	
6	
1	
11	
7	
1	
7	
7	
10	
7	
3	
4	
6	
3	
4	
13	
8	
6	
3	
7	
10	
4	
3	
5	
7	
4	
4	
3	
4	
10	
6	
7	
13	
10	
8	
6	
3	
3	
3	
7	
6	
3	
7	
4	
10	
2	
4	
10	
2	
9	
9	
8	
5	
7	
9	
2	
7	
10	
8	
10	
2	
5	
5	
7	
10	
4	
6	
4	
10	
7	
3	
6	
6	
10	
4	
7	
7	
11	
7	
3	
6	
6	
4	
10	
3	
10	
3	
6	
4	
5	
8	
7	
5	
3	
10	
2	
7	
4	
5	
6	
5	
11	
4	
4	
6	
4	
10	
8	
5	
5	
6	
7	
4	
5	
5	
6	
6	
12	
7	
11	
4	
3	
4	
7	
7	
6	
7	
13	
6	
7	
11	
6	
2	
5	
9	
7	
6	
7	
4	
4	
8	
9	
7	
4	
8	
6	
5	
7	
9	
9	
3	
5	
5	
1	
6	
7	
6	
8	
2	
5	
6	
3	
3	
6	
7	
3	
7	
3	
4	
6	
11	
6	
6	
6	
6	
8	
5	
3	
9	
9	
4	
5	
7	
6	
7	
7	
8	
4	
9	
5	
6	
4	
5	
5	
5	
3	
5	
9	
3	
8	
3	
1	
7	
9	
3	
5	
2	
6	
5	
3	
6	
5	
8	
5	
8	
3	
7	
5	
8	
3	
7	
6	
4	
6	
3	
6	
7	
7	
6	
8	
7	
6	
4	
9	
8	
2	
6	
6	
6	
12	
5	
4	
8	
4	
7	
8	
2	
4	
7	
4	
16	
9	
7	
4	
5	
5	
7	
6	
9	
7	
4	
4	
5	
6	
5	
10	
6	
6	
5	
5	
6	
6	
6	
6	
10	
4	
5	
5	
5	
9	
6	
12	
6	
3	
1	
7	
5	
2	
7	
6	
7	
11	
7	
5	
9	
4	
4	
9	
6	
9	
6	
5	
5	
7	
5	
8	
3	
4	
4	
2	
8	
5	
2	
8	
10	
2	
8	
4	
4	
8	
7	
7	
5	
8	
6	
8	
11	
7	
5	
8	
6	
7	
6	
6	
6	
12	
7	
5	
6	
8	
3	
5	
2	
7	
3	
8	
4	
5	
3	
4	
11	
4	
5	
7	
7	
2	
4	
5	
7	
6	
7	
2	
9	
6	
7	
8	
9	
5	
10	
4	
3	
3	
7	
9	
13	
7	
7	
7	
2	
4	
10	
6	
6	
12	
3	
5	
4	
8	
1	
3	
9	
4	
7	
9	
3	
2	
4	
8	
7	
10	
9	
5	
9	
12	
5	
6	
6	
2	
5	
6	
3	
4	
5	
11	
7	
8	
8	
9	
4	
5	
5	
4	
5	
2	
4	
4	
8	
5	
7	
10	
6	
5	
7	
8	
8	
5	
8	
2	
2	
6	
4	
6	
5	
4	
11	
10	
7	
4	
11	
5	
7	
7	
5	
7	
8	
8	
7	
5	
4	
7	
10	
4	
8	
8	
6	
4	
5	
7	
5	
11	
4	
6	
5	
8	
6	
7	
4	
7	
6	
5	
5	
9	
6	
6	
5	
8	
12	
9	
4	
7	
3	
4	
6	
4	
5	
4	
6	
4	
6	
4	
10	
1	
5	
6	
6	
10	
10	
4	
2	
4	
9	
4	
9	
5	
3	
3	
7	
9	
6	
6	
2	
5	
2	
11	
6	
5	
9	
8	
5	
7	
5	
6	
0	
7	
5	
6	
5	
9	
8	
11	
8	
3	
6	
4	
9	
6	
5	
8	
5	
2	
6	
6	
7	
2	
9	
6	
7	
5	
7	
5	
10	
7	
4	
4	
2	
9	
6	
2	
7	
5	
2	
5	
6	
4	
3	
1	
4	
12	
2	
7	
3	
9	
4	
2	
9	
7	
2	
10	
2	
5	
2	
4	
7	
4	
4	
5	
4	
7	
4	
6	
8	
8	
6	
7	
6	
3	
6	
2	
9	
4	
5	
6	
5	
5	
4	
8	
9	
4	
2	
7	
5	
5	
6	
2	
6	
3	
4	
4	
6	
2	
4	
2	
1	
4	
7	
9	
8	
7	
4	
4	
8	
4	
8	
8	
4	
6	
5	
4	
8	
2	
6	
3	
4	
2	
8	
4	
4	
13	
5	
3	
8	
3	
5	
6	
5	
4	
7	
7	
3	
5	
6	
5	
7	
1	
3	
6	
6	
1	
3	
4	
5	
3	
5	
6	
8	
6	
3	
4	
6	
10	
2	
4	
3	
6	
2	
6	
6	
5	
11	
5	
8	
3	
5	
4	
6	
2	
2	
2	
10	
2	
5	
6	
4	
4	
6	
5	
7	
7	
8	
4	
3	
2	
2	
9	
4	
7	
4	
5	
4	
4	
6	
6	
6	
4	
7	
9	
9	
10	
5	
11	
2	
4	
7	
3	
9	
4	
5	
5	
5	
4	
11	
4	
8	
4	
8	
4	
3	
2	
5	
4	
4	
9	
6	
5	
10	
3	
6	
4	
7	
10	
5	
4	
10	
4	
4	
5	
9	
4	
5	
3	
8	
10	
3	
3	
4	
4	
6	
4	
3	
4	
2	
3	
5	
8	
5	
4	
5	
4	
6	
6	
5	
3	
4	
5	
7	
4	
5	
9	
6	
6	
4	
2	
6	
7	
8	
5	
5	
1	
4	
3	
6	
3	
3	
9	
7	
2	
3	
4	
3	
5	
5	
8	
4	
8	
4	
6	
7	
4	
4	
7	
5	
6	
5	
5	
4	
1	
1	
6	
6	
6	
4	
5	
1	
8	
3	
2	
6	
7	
2	
1	
7	
5	
6	
7	
5	
2	
3	
8	
4	
9	
6	
2	
6	
4	
7	
4	
9	
6	
4	
4	
5	
4	
5	
8	
9	
3	
10	
10	
5	
3	
5	
5	
5	
11	
4	
6	
6	
1	
5	
4	
5	
1	
6	
4	
4	
5	
7	
12	
6	
6	
5	
6	
7	
7	
7	
4	
5	
8	
7	
5	
8	
4	
6	
4	
3	
7	
1	
