#PicoHarp 300  Histogram Data			03/27/2023 12:46:12 PM
#channels per curve
15625
#display curve no.
0	
#memory block no.
0	
#ns/channel
0.1280	
#counts
0	
0	
2	
6	
1	
5	
2	
3	
4	
2	
1	
5	
1	
0	
3	
3	
0	
0	
4	
1	
4	
0	
1	
3	
2	
1	
2	
2	
2	
3	
5	
0	
6	
3	
3	
0	
1	
2	
2	
3	
3	
2	
0	
0	
3	
2	
4	
2	
0	
5	
3	
2	
5	
1	
1	
4	
1	
4	
2	
3	
2	
1	
6	
4	
6	
5	
6	
16	
32	
73	
168	
307	
438	
602	
738	
830	
944	
954	
998	
1000	
932	
987	
990	
914	
948	
987	
884	
916	
851	
857	
791	
781	
808	
827	
809	
822	
787	
803	
764	
708	
743	
728	
743	
728	
719	
699	
671	
740	
676	
676	
674	
657	
716	
696	
665	
636	
683	
665	
623	
658	
677	
680	
687	
594	
593	
653	
633	
568	
609	
573	
577	
562	
572	
580	
646	
577	
576	
586	
555	
535	
587	
590	
597	
520	
533	
579	
555	
537	
509	
542	
530	
482	
544	
507	
509	
525	
537	
521	
525	
532	
533	
511	
508	
524	
511	
532	
518	
513	
514	
469	
468	
505	
532	
447	
488	
469	
472	
473	
451	
471	
474	
449	
457	
534	
478	
452	
451	
436	
474	
481	
455	
446	
460	
474	
451	
445	
448	
457	
438	
435	
418	
467	
445	
427	
457	
434	
400	
416	
421	
454	
415	
433	
416	
415	
444	
446	
405	
439	
431	
421	
418	
393	
394	
398	
436	
427	
399	
403	
436	
396	
400	
421	
421	
409	
394	
395	
389	
390	
414	
405	
400	
385	
404	
390	
398	
385	
355	
403	
365	
372	
348	
362	
405	
349	
355	
389	
360	
387	
410	
336	
349	
362	
318	
382	
367	
387	
330	
386	
372	
342	
352	
324	
325	
336	
361	
349	
373	
328	
355	
332	
341	
321	
365	
326	
343	
332	
362	
341	
357	
318	
328	
333	
330	
354	
348	
380	
302	
337	
318	
319	
333	
322	
320	
314	
365	
327	
331	
283	
337	
320	
316	
311	
330	
325	
308	
307	
337	
305	
294	
331	
337	
331	
287	
290	
340	
310	
302	
326	
306	
327	
315	
326	
306	
281	
298	
340	
308	
281	
278	
299	
326	
279	
319	
337	
332	
259	
319	
304	
320	
287	
285	
310	
286	
305	
261	
298	
284	
299	
269	
295	
296	
256	
311	
289	
306	
297	
284	
326	
280	
313	
311	
295	
280	
284	
309	
305	
278	
291	
275	
281	
279	
311	
283	
279	
250	
283	
290	
280	
300	
248	
276	
270	
291	
258	
262	
258	
273	
271	
262	
257	
227	
270	
252	
279	
263	
271	
253	
287	
293	
227	
273	
248	
248	
241	
257	
266	
275	
250	
242	
251	
284	
233	
235	
296	
232	
295	
237	
255	
280	
270	
229	
265	
238	
242	
224	
252	
243	
239	
262	
245	
245	
248	
237	
247	
220	
254	
282	
243	
228	
248	
232	
222	
254	
248	
259	
227	
239	
232	
230	
257	
223	
249	
259	
236	
230	
240	
232	
231	
201	
239	
217	
249	
205	
230	
266	
230	
249	
210	
263	
220	
224	
214	
232	
228	
237	
201	
235	
216	
246	
236	
228	
229	
207	
227	
246	
243	
240	
200	
229	
223	
221	
221	
237	
246	
210	
205	
221	
210	
218	
227	
206	
229	
242	
205	
210	
248	
194	
183	
224	
219	
232	
233	
230	
243	
203	
215	
235	
240	
211	
206	
202	
200	
218	
220	
215	
212	
227	
195	
208	
210	
211	
224	
220	
239	
224	
197	
211	
229	
198	
231	
214	
181	
204	
204	
204	
206	
208	
225	
202	
188	
206	
190	
201	
192	
183	
195	
190	
198	
181	
183	
195	
230	
207	
208	
201	
171	
172	
214	
206	
204	
173	
218	
185	
174	
194	
189	
198	
203	
185	
199	
202	
178	
164	
174	
198	
202	
179	
180	
214	
163	
192	
185	
178	
216	
188	
193	
176	
197	
179	
176	
193	
216	
179	
172	
170	
195	
200	
178	
183	
192	
171	
183	
191	
169	
198	
191	
168	
183	
195	
188	
177	
167	
143	
161	
164	
171	
193	
170	
179	
173	
178	
166	
166	
167	
157	
177	
182	
199	
176	
178	
185	
176	
169	
172	
175	
169	
177	
161	
185	
166	
166	
154	
167	
160	
194	
155	
185	
168	
179	
171	
159	
177	
159	
153	
172	
179	
172	
169	
160	
170	
155	
156	
193	
189	
171	
145	
174	
169	
170	
189	
181	
166	
147	
166	
167	
177	
155	
162	
165	
169	
164	
190	
164	
180	
170	
163	
168	
177	
137	
156	
155	
161	
148	
161	
179	
151	
167	
156	
164	
168	
159	
150	
163	
167	
174	
144	
142	
155	
163	
149	
173	
152	
184	
149	
169	
147	
168	
178	
169	
147	
162	
150	
188	
144	
160	
162	
138	
143	
174	
147	
165	
166	
165	
131	
153	
153	
142	
147	
157	
157	
165	
132	
130	
146	
145	
144	
172	
142	
137	
160	
146	
131	
179	
132	
149	
152	
165	
150	
143	
166	
131	
143	
138	
151	
157	
160	
147	
135	
149	
159	
138	
135	
135	
161	
153	
159	
145	
142	
141	
140	
131	
139	
134	
157	
135	
157	
156	
173	
161	
131	
143	
129	
122	
136	
134	
156	
146	
140	
161	
144	
135	
130	
170	
168	
146	
156	
140	
129	
138	
128	
144	
141	
158	
133	
157	
131	
160	
138	
143	
127	
134	
146	
163	
135	
132	
140	
140	
150	
144	
134	
141	
146	
148	
143	
115	
130	
128	
151	
136	
138	
148	
143	
140	
121	
138	
126	
127	
133	
128	
156	
133	
137	
105	
144	
140	
131	
126	
135	
137	
121	
133	
113	
104	
120	
123	
124	
135	
135	
118	
120	
138	
134	
144	
131	
137	
122	
144	
118	
114	
147	
131	
129	
141	
139	
115	
105	
129	
117	
124	
116	
131	
155	
117	
109	
137	
161	
119	
134	
122	
124	
129	
132	
115	
156	
133	
142	
123	
125	
127	
116	
129	
120	
142	
122	
132	
115	
118	
134	
117	
120	
117	
132	
115	
117	
118	
114	
147	
119	
125	
102	
108	
123	
132	
138	
131	
112	
102	
98	
128	
134	
132	
102	
120	
120	
124	
120	
126	
129	
118	
101	
122	
112	
102	
134	
110	
130	
107	
127	
133	
113	
120	
122	
125	
117	
105	
130	
108	
120	
121	
123	
109	
104	
129	
126	
102	
126	
115	
122	
115	
122	
121	
100	
99	
121	
136	
138	
115	
93	
127	
115	
110	
112	
126	
109	
120	
113	
117	
102	
120	
106	
131	
115	
107	
115	
114	
105	
112	
112	
116	
104	
103	
100	
111	
106	
126	
115	
120	
101	
104	
103	
101	
102	
132	
113	
132	
113	
113	
123	
130	
116	
122	
84	
83	
125	
97	
100	
117	
108	
112	
110	
116	
116	
109	
135	
96	
104	
112	
100	
100	
100	
118	
116	
106	
115	
97	
94	
123	
105	
93	
117	
97	
87	
129	
98	
118	
112	
126	
89	
112	
101	
91	
107	
100	
99	
113	
96	
103	
110	
108	
105	
99	
110	
103	
101	
111	
105	
103	
115	
108	
95	
118	
83	
110	
94	
109	
107	
101	
88	
99	
114	
94	
108	
107	
105	
96	
95	
99	
109	
92	
98	
108	
96	
87	
88	
102	
98	
110	
112	
95	
109	
109	
84	
100	
100	
100	
109	
98	
91	
95	
106	
88	
87	
91	
123	
134	
115	
93	
108	
100	
98	
108	
127	
94	
96	
86	
103	
97	
99	
85	
102	
75	
114	
94	
90	
83	
106	
102	
95	
107	
97	
101	
98	
83	
101	
78	
91	
98	
91	
97	
111	
101	
105	
105	
108	
93	
80	
85	
97	
105	
106	
102	
86	
85	
109	
106	
91	
109	
102	
88	
81	
92	
103	
101	
109	
102	
94	
104	
90	
89	
106	
93	
74	
89	
86	
101	
104	
101	
113	
76	
112	
90	
120	
102	
89	
97	
109	
91	
91	
85	
89	
86	
97	
90	
83	
89	
76	
80	
99	
110	
90	
89	
82	
85	
109	
88	
103	
73	
91	
94	
97	
82	
88	
95	
98	
94	
90	
105	
108	
87	
83	
89	
85	
80	
90	
84	
90	
97	
103	
78	
98	
97	
97	
84	
91	
96	
88	
94	
86	
92	
86	
102	
74	
83	
109	
95	
101	
104	
83	
91	
100	
104	
88	
86	
96	
85	
95	
91	
87	
74	
79	
90	
87	
96	
89	
96	
77	
78	
85	
83	
84	
98	
63	
86	
81	
77	
83	
100	
84	
86	
84	
80	
96	
97	
68	
83	
73	
73	
78	
99	
90	
77	
88	
85	
77	
77	
89	
84	
88	
71	
94	
89	
87	
76	
84	
83	
85	
94	
67	
80	
86	
80	
87	
75	
101	
96	
85	
88	
81	
83	
94	
80	
82	
92	
64	
76	
66	
83	
80	
76	
101	
80	
86	
83	
89	
75	
91	
88	
95	
89	
81	
94	
75	
89	
87	
81	
77	
82	
76	
99	
77	
73	
79	
95	
75	
85	
83	
69	
55	
72	
92	
72	
76	
83	
95	
85	
80	
73	
84	
86	
81	
75	
83	
69	
90	
99	
81	
76	
84	
72	
82	
75	
91	
80	
101	
75	
87	
72	
75	
69	
76	
73	
71	
68	
83	
76	
84	
87	
95	
59	
63	
79	
83	
89	
65	
66	
75	
76	
72	
99	
80	
80	
84	
69	
86	
83	
77	
74	
67	
80	
67	
79	
67	
98	
77	
68	
73	
77	
70	
81	
84	
78	
82	
70	
98	
79	
61	
86	
64	
70	
78	
61	
88	
82	
94	
67	
79	
75	
78	
79	
74	
76	
76	
69	
71	
95	
73	
83	
82	
77	
81	
75	
52	
93	
78	
68	
71	
72	
58	
69	
53	
78	
80	
77	
73	
74	
69	
70	
68	
70	
75	
63	
80	
79	
81	
79	
68	
82	
80	
62	
59	
82	
77	
76	
62	
69	
62	
68	
88	
88	
67	
61	
78	
77	
69	
63	
91	
75	
70	
81	
72	
70	
62	
57	
61	
78	
60	
57	
54	
62	
77	
64	
76	
69	
63	
71	
87	
61	
69	
51	
60	
69	
84	
73	
67	
60	
76	
75	
68	
75	
71	
64	
73	
62	
84	
69	
67	
65	
69	
62	
68	
69	
66	
58	
65	
74	
63	
71	
74	
77	
78	
75	
74	
74	
65	
78	
85	
63	
76	
52	
56	
71	
69	
63	
68	
71	
71	
67	
56	
61	
61	
69	
69	
60	
77	
65	
66	
59	
72	
65	
68	
78	
76	
67	
57	
55	
73	
59	
65	
69	
56	
60	
66	
72	
70	
75	
76	
69	
65	
60	
60	
73	
60	
57	
58	
71	
56	
68	
63	
69	
76	
50	
69	
62	
68	
61	
52	
60	
66	
56	
75	
51	
57	
56	
64	
84	
69	
65	
60	
62	
56	
65	
71	
60	
53	
63	
71	
63	
69	
76	
62	
72	
75	
68	
66	
68	
64	
68	
61	
59	
70	
60	
63	
67	
52	
74	
54	
68	
70	
61	
70	
57	
57	
48	
51	
69	
59	
59	
65	
63	
57	
60	
68	
72	
63	
66	
68	
71	
62	
59	
58	
77	
64	
68	
72	
64	
62	
48	
58	
61	
58	
52	
74	
55	
57	
66	
58	
68	
61	
58	
52	
59	
71	
56	
61	
52	
70	
61	
50	
70	
65	
57	
50	
64	
64	
54	
59	
60	
64	
67	
57	
63	
72	
56	
58	
54	
57	
42	
68	
53	
60	
52	
62	
66	
54	
61	
55	
55	
69	
50	
55	
62	
49	
59	
64	
57	
47	
66	
59	
52	
62	
71	
57	
68	
66	
68	
57	
44	
78	
55	
71	
60	
68	
47	
59	
57	
59	
62	
44	
51	
71	
62	
58	
51	
60	
62	
57	
57	
51	
64	
57	
58	
60	
55	
59	
45	
56	
64	
53	
67	
48	
51	
56	
50	
72	
65	
62	
58	
52	
49	
57	
58	
44	
61	
51	
66	
63	
57	
44	
49	
43	
78	
48	
57	
49	
62	
46	
49	
66	
66	
62	
60	
37	
59	
66	
51	
41	
59	
64	
54	
71	
57	
60	
57	
52	
56	
60	
55	
58	
68	
66	
59	
54	
59	
65	
49	
62	
63	
52	
59	
59	
55	
59	
59	
66	
68	
60	
44	
50	
57	
52	
64	
54	
56	
71	
44	
45	
39	
57	
57	
63	
58	
52	
53	
54	
57	
47	
47	
66	
55	
57	
60	
50	
46	
54	
57	
59	
56	
56	
55	
37	
55	
63	
57	
45	
60	
60	
41	
55	
54	
58	
49	
52	
50	
43	
46	
45	
51	
57	
58	
61	
56	
47	
34	
63	
48	
49	
60	
55	
70	
67	
58	
56	
52	
54	
54	
44	
54	
54	
45	
51	
51	
54	
54	
46	
54	
52	
54	
47	
61	
57	
47	
53	
51	
49	
52	
33	
46	
66	
42	
46	
50	
50	
49	
46	
43	
50	
52	
62	
59	
53	
52	
61	
59	
65	
48	
50	
56	
47	
52	
36	
41	
51	
54	
54	
59	
55	
44	
53	
56	
60	
56	
56	
46	
60	
35	
52	
41	
44	
49	
42	
56	
60	
46	
48	
51	
58	
56	
53	
52	
43	
54	
47	
50	
42	
57	
43	
49	
49	
46	
44	
60	
62	
50	
49	
56	
57	
58	
47	
46	
33	
54	
49	
55	
60	
42	
48	
55	
39	
46	
52	
53	
59	
53	
54	
52	
55	
52	
51	
55	
57	
46	
60	
50	
57	
65	
56	
50	
55	
49	
51	
49	
34	
44	
56	
65	
52	
60	
53	
58	
46	
60	
64	
45	
53	
47	
60	
44	
47	
52	
44	
55	
52	
54	
67	
44	
57	
47	
45	
37	
60	
52	
50	
65	
37	
39	
48	
42	
43	
38	
54	
57	
43	
41	
43	
36	
59	
45	
51	
43	
42	
40	
48	
44	
52	
44	
51	
43	
48	
51	
50	
55	
47	
48	
51	
49	
44	
54	
39	
52	
36	
41	
39	
49	
48	
40	
55	
45	
63	
50	
46	
55	
39	
37	
50	
36	
52	
43	
46	
45	
54	
57	
47	
56	
47	
48	
43	
51	
44	
40	
45	
31	
43	
55	
52	
62	
50	
41	
45	
45	
46	
49	
43	
37	
44	
51	
52	
35	
46	
51	
56	
55	
56	
58	
43	
45	
47	
39	
61	
54	
49	
61	
39	
42	
56	
48	
42	
44	
48	
47	
40	
53	
33	
39	
39	
44	
56	
40	
50	
42	
51	
51	
65	
49	
53	
44	
40	
53	
42	
44	
47	
42	
58	
50	
46	
44	
33	
49	
43	
50	
48	
59	
42	
30	
63	
36	
45	
49	
39	
50	
37	
57	
33	
36	
40	
42	
39	
40	
54	
46	
55	
38	
58	
47	
46	
55	
37	
54	
43	
37	
39	
37	
52	
52	
43	
36	
41	
54	
51	
44	
56	
36	
53	
42	
40	
37	
37	
49	
46	
36	
46	
46	
44	
48	
38	
44	
46	
42	
60	
43	
46	
43	
40	
41	
48	
42	
45	
45	
45	
38	
56	
53	
22	
45	
49	
40	
48	
47	
40	
48	
39	
46	
23	
48	
42	
35	
37	
47	
46	
39	
43	
47	
39	
59	
51	
34	
32	
39	
38	
41	
47	
38	
37	
38	
46	
42	
41	
30	
46	
32	
37	
38	
43	
51	
35	
41	
30	
44	
45	
40	
30	
41	
45	
58	
39	
49	
45	
42	
37	
42	
44	
34	
39	
55	
40	
46	
33	
40	
28	
37	
35	
32	
46	
38	
46	
44	
46	
35	
40	
41	
40	
49	
35	
49	
39	
36	
39	
43	
40	
32	
29	
48	
39	
33	
26	
40	
41	
47	
37	
36	
45	
50	
56	
59	
46	
40	
41	
56	
34	
34	
37	
35	
50	
32	
45	
31	
33	
44	
38	
32	
47	
37	
41	
40	
31	
32	
37	
24	
43	
47	
54	
35	
43	
31	
44	
35	
45	
42	
41	
45	
41	
48	
38	
37	
35	
43	
43	
46	
51	
56	
47	
36	
47	
43	
36	
42	
37	
39	
47	
29	
35	
38	
45	
26	
38	
30	
45	
35	
46	
41	
37	
30	
33	
37	
39	
44	
44	
30	
41	
39	
36	
42	
38	
41	
40	
28	
44	
40	
31	
45	
57	
47	
48	
27	
51	
38	
39	
53	
42	
54	
47	
43	
47	
37	
36	
44	
46	
35	
38	
41	
27	
51	
40	
35	
41	
47	
43	
28	
33	
45	
48	
42	
49	
30	
38	
36	
40	
34	
48	
33	
42	
41	
48	
34	
41	
39	
42	
37	
35	
29	
38	
39	
40	
44	
34	
34	
45	
28	
37	
43	
32	
39	
40	
43	
38	
43	
42	
47	
43	
48	
38	
31	
33	
61	
30	
47	
37	
30	
40	
38	
41	
43	
40	
35	
29	
40	
47	
42	
30	
38	
41	
47	
35	
42	
39	
36	
51	
37	
43	
37	
50	
33	
35	
45	
46	
41	
25	
44	
37	
48	
35	
43	
34	
35	
33	
36	
43	
37	
33	
39	
29	
44	
34	
35	
40	
31	
42	
37	
42	
41	
30	
31	
37	
34	
37	
39	
34	
32	
40	
33	
41	
33	
45	
36	
41	
41	
39	
35	
38	
34	
37	
38	
39	
24	
36	
42	
27	
41	
29	
36	
31	
35	
21	
41	
33	
38	
34	
36	
31	
34	
41	
49	
28	
38	
26	
39	
42	
51	
32	
27	
35	
43	
37	
37	
36	
45	
24	
35	
40	
36	
42	
43	
38	
35	
37	
49	
40	
34	
28	
29	
24	
37	
35	
39	
23	
19	
49	
39	
39	
33	
39	
27	
38	
43	
39	
41	
36	
41	
34	
40	
25	
35	
40	
34	
39	
30	
39	
34	
40	
31	
40	
42	
41	
32	
33	
36	
36	
32	
29	
37	
35	
26	
34	
38	
39	
40	
44	
32	
38	
22	
28	
30	
37	
27	
29	
30	
37	
31	
37	
38	
50	
34	
42	
40	
38	
29	
50	
49	
36	
26	
45	
32	
33	
33	
39	
41	
41	
44	
40	
27	
25	
27	
28	
31	
39	
33	
38	
33	
34	
38	
40	
27	
26	
28	
39	
25	
30	
38	
38	
33	
34	
37	
41	
30	
38	
45	
28	
34	
42	
32	
26	
39	
38	
31	
35	
27	
33	
40	
32	
27	
30	
36	
29	
45	
47	
37	
26	
37	
35	
31	
38	
32	
32	
27	
26	
33	
35	
30	
38	
29	
36	
36	
44	
32	
39	
34	
33	
34	
30	
28	
24	
27	
29	
33	
32	
32	
26	
33	
25	
38	
33	
42	
38	
33	
32	
26	
41	
37	
30	
23	
18	
30	
49	
36	
28	
24	
40	
29	
35	
39	
35	
40	
29	
27	
29	
50	
34	
34	
31	
33	
36	
32	
34	
26	
36	
31	
39	
38	
28	
31	
22	
34	
46	
31	
33	
44	
32	
30	
30	
37	
29	
33	
32	
40	
31	
40	
35	
31	
33	
24	
37	
24	
37	
30	
42	
37	
38	
25	
36	
38	
42	
44	
28	
39	
20	
34	
30	
30	
26	
28	
40	
30	
37	
25	
25	
38	
23	
32	
38	
29	
39	
31	
28	
35	
28	
20	
35	
26	
30	
19	
29	
30	
29	
27	
27	
25	
38	
35	
32	
31	
24	
31	
30	
38	
35	
23	
21	
40	
32	
31	
31	
29	
30	
25	
33	
29	
31	
32	
37	
31	
33	
33	
35	
36	
28	
37	
33	
33	
33	
23	
35	
37	
29	
31	
25	
22	
31	
29	
33	
23	
34	
24	
34	
27	
26	
28	
30	
26	
30	
31	
38	
24	
34	
23	
26	
28	
16	
21	
27	
34	
34	
30	
31	
27	
27	
30	
36	
31	
28	
29	
26	
39	
23	
37	
29	
41	
31	
23	
32	
34	
34	
24	
34	
30	
32	
33	
28	
36	
25	
30	
39	
28	
29	
36	
26	
30	
32	
36	
34	
39	
25	
35	
35	
31	
43	
30	
32	
28	
24	
34	
34	
31	
33	
40	
30	
37	
28	
38	
29	
29	
32	
26	
25	
29	
34	
29	
34	
29	
35	
31	
32	
29	
23	
42	
35	
31	
32	
32	
39	
29	
27	
25	
21	
29	
27	
37	
30	
21	
30	
26	
25	
27	
25	
24	
23	
24	
27	
37	
27	
33	
29	
20	
29	
29	
23	
29	
33	
28	
31	
38	
35	
25	
20	
35	
26	
30	
25	
32	
21	
31	
30	
28	
22	
31	
31	
33	
32	
38	
26	
21	
37	
40	
21	
31	
33	
32	
22	
39	
29	
20	
24	
30	
27	
26	
32	
31	
23	
38	
29	
26	
34	
32	
37	
42	
24	
24	
28	
36	
25	
20	
31	
28	
33	
35	
34	
32	
25	
35	
25	
20	
22	
25	
27	
34	
28	
28	
27	
33	
27	
33	
37	
30	
20	
22	
30	
17	
29	
37	
25	
26	
40	
25	
28	
24	
26	
25	
44	
26	
36	
21	
22	
31	
29	
27	
26	
31	
32	
17	
28	
29	
32	
26	
34	
39	
25	
28	
20	
30	
30	
23	
28	
35	
24	
25	
32	
28	
23	
28	
30	
33	
26	
19	
28	
28	
24	
29	
26	
37	
25	
30	
32	
27	
28	
26	
36	
43	
26	
27	
23	
26	
26	
20	
23	
22	
21	
34	
26	
28	
22	
19	
33	
26	
36	
24	
41	
21	
32	
31	
36	
31	
29	
28	
25	
26	
24	
26	
31	
30	
23	
26	
24	
28	
27	
19	
34	
24	
36	
32	
23	
26	
39	
24	
32	
23	
25	
22	
28	
30	
26	
30	
24	
30	
33	
33	
32	
23	
29	
26	
23	
19	
18	
26	
23	
48	
28	
31	
29	
24	
27	
28	
25	
34	
26	
26	
32	
38	
24	
23	
25	
23	
28	
25	
29	
11	
32	
31	
31	
20	
31	
36	
28	
22	
31	
34	
29	
19	
25	
24	
18	
28	
24	
29	
22	
33	
36	
26	
24	
20	
24	
36	
20	
36	
24	
43	
28	
20	
33	
22	
34	
26	
28	
26	
28	
31	
31	
24	
22	
30	
24	
27	
15	
15	
24	
34	
23	
24	
28	
25	
21	
34	
16	
30	
34	
29	
25	
19	
19	
21	
19	
26	
27	
28	
27	
23	
18	
24	
28	
23	
29	
20	
33	
22	
15	
31	
27	
28	
24	
23	
16	
16	
26	
19	
29	
23	
24	
22	
31	
28	
21	
30	
32	
22	
19	
38	
34	
25	
30	
24	
22	
20	
30	
17	
18	
19	
25	
25	
20	
27	
33	
37	
33	
23	
15	
29	
18	
25	
27	
26	
30	
21	
17	
31	
27	
30	
32	
26	
34	
27	
26	
31	
27	
30	
36	
24	
24	
29	
31	
23	
33	
21	
33	
30	
19	
23	
32	
17	
23	
28	
24	
25	
25	
20	
19	
20	
30	
32	
28	
30	
30	
30	
22	
22	
25	
15	
28	
20	
28	
28	
28	
28	
31	
16	
16	
21	
26	
15	
18	
23	
27	
25	
24	
31	
35	
21	
28	
26	
25	
35	
26	
26	
24	
32	
36	
27	
26	
27	
27	
24	
21	
16	
21	
16	
25	
22	
17	
22	
21	
33	
22	
31	
20	
30	
35	
20	
20	
28	
23	
19	
29	
20	
35	
19	
21	
21	
25	
32	
32	
25	
29	
21	
28	
25	
18	
26	
25	
24	
25	
28	
40	
25	
23	
31	
17	
20	
17	
26	
30	
24	
17	
24	
24	
30	
22	
19	
27	
29	
12	
20	
23	
19	
28	
27	
35	
18	
24	
16	
31	
37	
23	
29	
34	
33	
10	
20	
22	
29	
23	
17	
21	
21	
19	
27	
29	
24	
24	
23	
30	
23	
21	
20	
33	
21	
15	
23	
19	
20	
18	
21	
22	
19	
26	
33	
21	
16	
27	
30	
29	
15	
14	
27	
17	
26	
34	
23	
21	
25	
32	
26	
21	
22	
29	
26	
27	
25	
29	
25	
19	
23	
20	
22	
24	
29	
26	
25	
25	
22	
32	
31	
15	
27	
20	
19	
31	
23	
22	
25	
20	
21	
23	
19	
29	
19	
20	
19	
20	
17	
30	
17	
31	
24	
20	
27	
17	
18	
33	
20	
30	
22	
22	
29	
26	
12	
20	
24	
26	
29	
18	
19	
20	
29	
24	
15	
26	
27	
18	
24	
31	
25	
23	
19	
25	
19	
22	
20	
16	
22	
26	
24	
15	
26	
19	
24	
20	
21	
26	
24	
28	
17	
23	
24	
27	
21	
13	
20	
26	
24	
27	
25	
21	
25	
26	
24	
19	
24	
32	
30	
23	
20	
28	
17	
29	
21	
19	
22	
22	
27	
26	
24	
20	
21	
26	
22	
24	
16	
18	
23	
13	
20	
16	
19	
30	
22	
22	
24	
17	
29	
28	
30	
25	
30	
25	
24	
21	
27	
24	
26	
24	
24	
19	
20	
32	
24	
26	
28	
24	
22	
21	
26	
24	
22	
27	
20	
26	
29	
36	
22	
20	
23	
24	
19	
24	
15	
30	
29	
28	
21	
31	
18	
25	
34	
17	
30	
21	
28	
31	
21	
29	
16	
17	
19	
22	
26	
17	
20	
23	
23	
21	
28	
17	
21	
22	
27	
19	
35	
18	
19	
21	
23	
22	
15	
26	
21	
23	
14	
16	
21	
14	
26	
21	
26	
15	
17	
34	
25	
29	
30	
24	
23	
19	
17	
30	
23	
18	
19	
23	
24	
21	
16	
26	
13	
16	
22	
22	
19	
22	
18	
19	
20	
18	
19	
22	
18	
18	
14	
20	
25	
18	
31	
20	
15	
31	
14	
22	
23	
26	
22	
20	
27	
26	
16	
24	
19	
14	
19	
15	
19	
19	
17	
16	
15	
19	
28	
23	
21	
22	
19	
26	
27	
27	
28	
15	
23	
16	
20	
21	
22	
20	
25	
27	
17	
25	
16	
21	
19	
23	
15	
20	
22	
16	
25	
20	
23	
16	
19	
23	
29	
24	
20	
17	
23	
35	
24	
27	
19	
11	
11	
17	
27	
22	
28	
19	
17	
17	
21	
26	
27	
16	
26	
17	
22	
21	
9	
18	
21	
11	
21	
18	
26	
18	
19	
16	
18	
18	
13	
23	
23	
25	
31	
21	
21	
14	
26	
17	
22	
20	
20	
27	
24	
20	
18	
16	
19	
16	
23	
17	
17	
25	
23	
31	
27	
22	
22	
22	
19	
25	
33	
21	
24	
21	
21	
19	
23	
16	
17	
15	
18	
18	
18	
24	
20	
17	
21	
21	
25	
26	
15	
14	
18	
21	
22	
25	
21	
19	
28	
17	
22	
19	
26	
16	
22	
17	
19	
27	
18	
37	
20	
27	
15	
18	
27	
16	
27	
23	
26	
19	
25	
26	
18	
16	
17	
20	
26	
14	
24	
24	
25	
18	
19	
22	
23	
19	
16	
18	
20	
27	
20	
18	
21	
21	
19	
23	
14	
18	
17	
19	
21	
25	
14	
21	
20	
30	
15	
22	
16	
15	
17	
20	
24	
30	
17	
13	
32	
17	
17	
18	
8	
17	
20	
24	
18	
21	
18	
20	
18	
19	
18	
13	
18	
17	
15	
20	
13	
17	
25	
19	
19	
17	
22	
17	
17	
20	
12	
17	
20	
21	
27	
21	
19	
17	
24	
22	
15	
17	
24	
24	
26	
23	
23	
17	
27	
24	
18	
23	
19	
23	
22	
18	
21	
15	
26	
17	
14	
15	
23	
22	
17	
24	
24	
8	
19	
22	
24	
11	
29	
21	
23	
19	
21	
16	
17	
15	
24	
11	
20	
16	
15	
32	
22	
13	
20	
23	
17	
20	
26	
22	
21	
15	
11	
24	
16	
26	
19	
17	
27	
21	
22	
23	
19	
12	
9	
18	
25	
23	
19	
21	
18	
26	
33	
16	
17	
14	
17	
27	
24	
18	
23	
22	
19	
16	
19	
28	
12	
20	
21	
19	
24	
21	
17	
9	
20	
17	
19	
17	
19	
23	
19	
22	
22	
16	
20	
20	
21	
25	
23	
14	
18	
24	
30	
21	
20	
23	
11	
17	
24	
14	
13	
14	
24	
15	
19	
22	
11	
22	
25	
19	
18	
11	
20	
27	
23	
20	
17	
19	
24	
20	
28	
25	
18	
18	
12	
20	
25	
24	
17	
21	
20	
28	
22	
29	
29	
17	
15	
15	
28	
14	
22	
21	
24	
17	
18	
11	
17	
25	
24	
16	
16	
17	
20	
17	
17	
24	
13	
16	
12	
21	
20	
19	
13	
15	
17	
21	
16	
26	
15	
26	
15	
20	
15	
23	
21	
22	
13	
18	
23	
8	
25	
17	
22	
20	
22	
13	
27	
20	
15	
20	
18	
13	
24	
21	
22	
16	
22	
18	
16	
20	
19	
16	
8	
16	
21	
22	
20	
22	
19	
19	
15	
26	
21	
16	
26	
20	
13	
21	
16	
13	
17	
16	
19	
12	
16	
19	
11	
20	
20	
12	
20	
12	
21	
16	
19	
21	
16	
17	
18	
22	
25	
22	
16	
15	
19	
21	
21	
17	
20	
21	
16	
12	
24	
21	
18	
24	
23	
11	
21	
11	
15	
8	
19	
23	
19	
13	
12	
22	
19	
10	
21	
10	
13	
12	
17	
24	
15	
11	
15	
23	
22	
12	
8	
17	
15	
18	
22	
18	
12	
18	
20	
16	
17	
21	
16	
17	
17	
21	
22	
17	
21	
12	
17	
27	
20	
17	
17	
25	
15	
19	
15	
21	
24	
15	
19	
15	
10	
15	
15	
17	
13	
10	
15	
14	
9	
20	
21	
14	
15	
20	
23	
18	
18	
21	
21	
23	
18	
14	
13	
8	
15	
15	
14	
30	
14	
12	
14	
15	
13	
17	
17	
20	
21	
17	
17	
16	
18	
11	
18	
22	
8	
27	
16	
10	
16	
14	
15	
13	
13	
20	
14	
24	
13	
15	
12	
28	
16	
19	
15	
18	
14	
13	
23	
7	
18	
15	
24	
21	
9	
11	
13	
21	
19	
13	
24	
26	
20	
14	
17	
13	
13	
24	
14	
11	
12	
15	
13	
9	
14	
26	
17	
12	
15	
20	
25	
20	
31	
12	
16	
12	
7	
19	
15	
20	
9	
14	
19	
17	
11	
16	
20	
26	
13	
19	
19	
16	
19	
13	
16	
11	
17	
12	
12	
14	
19	
20	
18	
20	
18	
18	
17	
18	
17	
17	
20	
14	
13	
17	
14	
12	
19	
25	
17	
18	
17	
12	
22	
13	
13	
12	
17	
23	
18	
12	
25	
11	
14	
17	
14	
19	
19	
11	
15	
13	
24	
10	
15	
18	
22	
17	
12	
14	
13	
12	
16	
22	
14	
15	
11	
17	
16	
19	
17	
8	
16	
18	
21	
15	
18	
8	
14	
11	
15	
12	
17	
18	
24	
14	
17	
20	
9	
15	
14	
15	
15	
15	
23	
20	
15	
16	
14	
19	
8	
17	
20	
20	
13	
14	
24	
11	
13	
15	
19	
17	
17	
15	
16	
11	
18	
22	
10	
16	
22	
12	
12	
16	
12	
13	
17	
18	
12	
20	
17	
19	
13	
15	
22	
12	
23	
15	
16	
14	
15	
13	
14	
15	
16	
10	
15	
10	
16	
17	
18	
20	
18	
14	
22	
11	
9	
17	
16	
14	
18	
14	
14	
21	
10	
20	
15	
23	
17	
20	
21	
14	
16	
17	
10	
20	
15	
10	
17	
15	
19	
18	
13	
19	
18	
15	
15	
13	
12	
21	
10	
19	
16	
13	
16	
14	
10	
22	
24	
18	
14	
13	
19	
13	
13	
15	
13	
14	
20	
17	
21	
21	
17	
10	
15	
13	
11	
15	
11	
20	
10	
20	
13	
15	
17	
7	
16	
8	
15	
12	
10	
19	
9	
10	
15	
14	
12	
11	
16	
9	
15	
12	
10	
18	
12	
20	
16	
19	
9	
18	
14	
16	
17	
17	
18	
9	
10	
14	
14	
17	
11	
13	
12	
15	
13	
18	
21	
18	
15	
16	
17	
19	
26	
7	
17	
13	
15	
15	
20	
16	
22	
20	
21	
15	
13	
18	
17	
20	
17	
20	
21	
18	
18	
14	
20	
14	
14	
11	
10	
17	
13	
8	
15	
14	
18	
11	
23	
15	
11	
20	
25	
19	
16	
14	
14	
15	
15	
14	
17	
20	
16	
11	
14	
10	
17	
17	
14	
17	
17	
12	
14	
17	
12	
13	
13	
15	
18	
15	
16	
11	
11	
18	
13	
15	
11	
14	
11	
18	
13	
17	
16	
20	
10	
13	
14	
16	
20	
11	
21	
20	
12	
15	
18	
11	
11	
16	
11	
16	
9	
16	
17	
14	
15	
17	
14	
16	
18	
18	
16	
13	
15	
13	
24	
15	
13	
10	
7	
12	
9	
15	
17	
11	
20	
13	
20	
13	
19	
14	
11	
13	
15	
13	
18	
11	
22	
20	
25	
17	
25	
10	
14	
15	
12	
12	
19	
22	
11	
19	
8	
10	
15	
12	
16	
10	
14	
13	
13	
14	
23	
14	
18	
20	
17	
12	
14	
14	
12	
17	
16	
10	
13	
13	
10	
18	
16	
18	
11	
17	
16	
15	
19	
15	
15	
22	
14	
8	
18	
11	
7	
16	
20	
12	
16	
13	
13	
12	
14	
19	
13	
13	
7	
9	
14	
16	
8	
14	
12	
13	
8	
19	
18	
14	
18	
8	
7	
18	
15	
18	
15	
11	
24	
18	
15	
8	
18	
12	
17	
21	
12	
8	
17	
23	
8	
15	
16	
13	
13	
18	
13	
15	
16	
17	
15	
12	
19	
12	
12	
17	
16	
15	
10	
17	
20	
13	
12	
15	
9	
9	
11	
21	
12	
17	
11	
13	
13	
16	
11	
11	
15	
14	
21	
11	
18	
9	
13	
25	
11	
11	
6	
20	
20	
13	
9	
9	
15	
16	
11	
9	
12	
11	
16	
18	
11	
8	
18	
14	
13	
15	
16	
19	
3	
13	
8	
14	
20	
16	
17	
19	
9	
10	
20	
11	
7	
15	
21	
13	
11	
12	
16	
18	
7	
19	
20	
17	
9	
12	
10	
15	
11	
19	
19	
12	
17	
11	
13	
16	
12	
16	
17	
13	
7	
13	
6	
13	
13	
14	
12	
13	
14	
7	
16	
16	
9	
17	
12	
15	
11	
11	
14	
14	
12	
22	
12	
6	
16	
15	
13	
20	
11	
15	
13	
8	
15	
6	
18	
5	
12	
17	
13	
17	
17	
14	
13	
11	
18	
9	
16	
18	
20	
18	
12	
6	
18	
17	
13	
15	
11	
8	
17	
15	
10	
16	
13	
10	
11	
16	
13	
14	
17	
12	
13	
21	
17	
8	
15	
15	
14	
9	
13	
14	
14	
13	
14	
8	
17	
17	
12	
14	
8	
14	
14	
7	
12	
9	
20	
14	
12	
11	
22	
11	
12	
13	
16	
17	
21	
10	
10	
15	
5	
17	
12	
12	
17	
13	
12	
16	
7	
13	
9	
11	
13	
8	
19	
10	
17	
17	
16	
15	
12	
10	
16	
18	
11	
14	
13	
16	
9	
13	
12	
14	
11	
7	
11	
13	
8	
15	
13	
19	
13	
14	
13	
11	
5	
17	
15	
13	
17	
14	
17	
15	
17	
21	
14	
8	
12	
12	
14	
13	
8	
15	
15	
12	
11	
14	
13	
11	
21	
13	
12	
15	
16	
10	
7	
15	
15	
12	
11	
15	
21	
8	
18	
11	
12	
15	
12	
10	
14	
14	
10	
15	
9	
10	
14	
14	
14	
13	
9	
8	
12	
14	
16	
11	
5	
12	
7	
9	
19	
15	
15	
15	
9	
19	
5	
13	
15	
14	
17	
20	
14	
16	
14	
13	
15	
13	
15	
11	
9	
7	
9	
10	
10	
10	
17	
19	
16	
14	
10	
14	
14	
13	
9	
20	
18	
10	
24	
10	
12	
16	
11	
10	
16	
13	
18	
11	
11	
14	
11	
10	
13	
19	
11	
7	
17	
15	
25	
14	
7	
10	
18	
12	
20	
14	
7	
11	
7	
11	
12	
22	
12	
16	
13	
12	
15	
12	
13	
15	
12	
7	
10	
13	
11	
16	
15	
9	
9	
15	
14	
9	
5	
20	
11	
16	
15	
11	
16	
17	
19	
11	
14	
12	
14	
16	
17	
8	
17	
10	
15	
9	
18	
13	
11	
11	
18	
17	
14	
15	
14	
20	
14	
15	
14	
8	
13	
9	
12	
13	
15	
13	
11	
12	
11	
11	
7	
13	
5	
15	
10	
16	
14	
15	
11	
12	
14	
10	
18	
20	
14	
14	
11	
12	
12	
21	
13	
13	
7	
14	
10	
13	
10	
10	
17	
8	
7	
13	
10	
14	
10	
12	
11	
13	
12	
11	
11	
10	
9	
10	
11	
11	
15	
17	
9	
19	
10	
11	
14	
11	
12	
6	
9	
19	
18	
12	
15	
9	
7	
10	
5	
17	
13	
7	
12	
17	
21	
7	
12	
13	
12	
15	
12	
15	
10	
12	
9	
12	
20	
17	
10	
12	
11	
8	
6	
9	
14	
9	
14	
11	
16	
16	
11	
11	
14	
20	
13	
9	
12	
17	
7	
11	
5	
9	
9	
22	
8	
14	
18	
25	
7	
12	
14	
12	
8	
24	
7	
10	
13	
9	
8	
12	
9	
11	
10	
12	
9	
18	
15	
9	
12	
18	
13	
8	
7	
11	
12	
15	
8	
13	
14	
12	
10	
9	
10	
5	
7	
13	
10	
14	
19	
17	
12	
13	
8	
16	
11	
8	
13	
6	
9	
11	
14	
14	
14	
18	
14	
5	
16	
15	
13	
13	
11	
9	
21	
14	
12	
15	
10	
16	
5	
11	
9	
15	
10	
10	
17	
13	
8	
17	
12	
7	
14	
11	
12	
18	
12	
11	
10	
10	
14	
8	
10	
20	
9	
9	
12	
14	
7	
8	
8	
15	
10	
14	
10	
11	
16	
11	
10	
9	
12	
12	
16	
12	
10	
18	
14	
10	
12	
8	
16	
17	
11	
5	
16	
9	
9	
21	
11	
21	
13	
13	
13	
12	
10	
7	
13	
12	
7	
11	
9	
12	
15	
13	
12	
8	
11	
12	
19	
8	
14	
11	
16	
7	
11	
10	
11	
5	
11	
11	
8	
14	
11	
12	
10	
8	
11	
12	
9	
17	
8	
10	
14	
16	
13	
12	
19	
17	
7	
14	
12	
11	
13	
10	
7	
10	
20	
11	
7	
7	
11	
7	
15	
7	
16	
17	
13	
16	
7	
12	
15	
7	
6	
17	
17	
19	
12	
10	
11	
16	
7	
9	
11	
14	
10	
7	
11	
7	
10	
11	
6	
8	
10	
6	
15	
12	
12	
7	
9	
9	
9	
9	
13	
5	
17	
11	
10	
10	
16	
12	
11	
11	
4	
11	
7	
17	
11	
11	
14	
7	
10	
10	
11	
18	
16	
11	
11	
14	
7	
8	
14	
10	
8	
7	
10	
8	
13	
18	
17	
7	
19	
10	
8	
13	
11	
15	
6	
8	
11	
10	
5	
14	
11	
14	
12	
13	
10	
11	
18	
15	
11	
15	
11	
10	
11	
9	
8	
6	
16	
4	
7	
11	
11	
10	
9	
8	
7	
8	
9	
15	
11	
17	
12	
19	
14	
18	
15	
16	
11	
9	
13	
11	
5	
13	
5	
11	
11	
6	
11	
9	
8	
7	
10	
13	
14	
14	
15	
16	
11	
12	
10	
14	
7	
10	
13	
16	
11	
8	
7	
10	
10	
19	
14	
10	
7	
8	
12	
6	
9	
6	
11	
13	
8	
12	
15	
14	
7	
7	
14	
11	
11	
8	
13	
11	
10	
13	
13	
11	
12	
10	
15	
12	
17	
11	
10	
8	
10	
12	
15	
7	
13	
14	
9	
11	
7	
6	
14	
12	
14	
5	
11	
12	
9	
14	
10	
14	
10	
10	
9	
14	
8	
11	
18	
11	
11	
9	
13	
9	
14	
7	
8	
12	
12	
9	
9	
14	
10	
7	
12	
13	
8	
13	
9	
11	
12	
11	
9	
10	
4	
12	
12	
9	
9	
8	
9	
15	
6	
8	
9	
20	
10	
8	
3	
10	
15	
3	
8	
9	
8	
12	
12	
7	
8	
12	
6	
11	
14	
10	
14	
6	
7	
8	
8	
9	
12	
9	
10	
11	
9	
10	
12	
12	
8	
6	
16	
13	
13	
11	
9	
14	
4	
12	
15	
5	
15	
13	
10	
9	
13	
6	
9	
6	
11	
9	
11	
6	
18	
10	
11	
17	
13	
8	
10	
7	
11	
11	
9	
11	
7	
9	
13	
6	
5	
7	
11	
7	
12	
7	
9	
10	
7	
8	
10	
12	
6	
7	
16	
5	
11	
11	
8	
13	
9	
5	
10	
14	
9	
4	
15	
10	
5	
9	
10	
11	
9	
6	
10	
10	
8	
15	
7	
10	
13	
7	
9	
9	
7	
14	
4	
14	
11	
11	
7	
17	
11	
8	
10	
8	
8	
6	
9	
6	
14	
17	
13	
11	
10	
10	
10	
12	
18	
5	
8	
14	
5	
5	
10	
11	
11	
9	
13	
17	
9	
14	
13	
9	
13	
14	
12	
10	
11	
7	
8	
7	
9	
8	
13	
13	
10	
7	
10	
15	
12	
7	
18	
10	
16	
4	
10	
8	
17	
9	
14	
7	
15	
8	
11	
10	
13	
13	
13	
4	
15	
8	
10	
8	
17	
13	
8	
11	
16	
17	
10	
6	
6	
12	
8	
9	
12	
11	
9	
6	
10	
14	
9	
17	
5	
12	
15	
9	
7	
7	
9	
13	
15	
3	
12	
5	
12	
12	
10	
11	
7	
6	
9	
8	
10	
2	
11	
8	
15	
13	
9	
9	
11	
10	
10	
5	
8	
17	
6	
9	
11	
6	
11	
12	
9	
11	
6	
9	
9	
11	
12	
11	
7	
12	
15	
7	
14	
10	
8	
12	
14	
8	
6	
15	
7	
13	
11	
8	
8	
15	
7	
11	
5	
13	
6	
12	
8	
13	
8	
11	
15	
9	
8	
14	
4	
8	
22	
3	
4	
12	
11	
6	
9	
12	
11	
9	
12	
16	
6	
10	
13	
15	
9	
8	
8	
6	
5	
6	
9	
6	
9	
13	
8	
18	
10	
12	
11	
6	
9	
12	
8	
6	
6	
9	
13	
10	
16	
10	
7	
11	
8	
9	
11	
12	
9	
10	
8	
11	
10	
5	
6	
5	
11	
17	
7	
7	
9	
7	
5	
13	
14	
18	
8	
10	
8	
11	
11	
15	
12	
2	
6	
9	
10	
10	
10	
11	
8	
16	
18	
15	
15	
9	
12	
9	
11	
9	
15	
13	
9	
10	
16	
10	
12	
11	
12	
10	
10	
3	
8	
9	
7	
10	
7	
11	
7	
9	
6	
7	
14	
8	
6	
11	
6	
12	
14	
8	
8	
12	
14	
14	
11	
15	
9	
6	
11	
12	
12	
17	
7	
7	
12	
12	
6	
9	
8	
5	
11	
12	
11	
13	
6	
12	
15	
9	
11	
7	
8	
10	
13	
4	
9	
7	
9	
10	
5	
11	
8	
12	
12	
3	
5	
4	
10	
17	
11	
9	
14	
12	
14	
11	
9	
11	
6	
12	
11	
9	
13	
11	
10	
13	
11	
10	
8	
13	
7	
7	
8	
11	
5	
7	
11	
4	
7	
15	
13	
5	
6	
9	
9	
7	
6	
14	
10	
8	
10	
10	
9	
9	
14	
6	
2	
13	
16	
12	
7	
9	
9	
14	
11	
4	
7	
13	
7	
6	
9	
12	
9	
8	
6	
12	
8	
8	
6	
8	
10	
11	
10	
9	
14	
10	
9	
7	
7	
8	
14	
9	
12	
4	
9	
9	
10	
10	
7	
14	
6	
11	
5	
12	
12	
14	
3	
8	
3	
13	
9	
13	
5	
12	
17	
9	
5	
11	
8	
15	
7	
5	
10	
9	
12	
7	
11	
6	
11	
11	
7	
9	
8	
7	
9	
7	
9	
9	
12	
11	
10	
9	
13	
15	
11	
8	
11	
8	
8	
11	
7	
9	
4	
9	
5	
10	
7	
8	
12	
12	
6	
6	
9	
8	
7	
9	
12	
10	
12	
10	
7	
9	
11	
11	
14	
10	
6	
12	
11	
7	
9	
10	
10	
12	
7	
8	
11	
14	
11	
12	
9	
9	
8	
9	
10	
10	
11	
9	
8	
7	
9	
10	
9	
13	
8	
10	
7	
8	
13	
8	
6	
8	
11	
13	
8	
14	
7	
6	
5	
7	
8	
6	
7	
17	
13	
5	
4	
10	
6	
10	
7	
6	
12	
6	
16	
13	
7	
5	
10	
11	
9	
12	
8	
3	
9	
6	
14	
6	
7	
8	
2	
11	
10	
10	
9	
7	
8	
15	
4	
11	
5	
13	
8	
15	
9	
8	
7	
5	
13	
14	
9	
16	
5	
5	
12	
10	
9	
11	
15	
10	
6	
10	
9	
11	
11	
7	
14	
11	
6	
11	
10	
6	
6	
6	
13	
6	
5	
7	
6	
13	
4	
8	
5	
10	
12	
10	
11	
11	
8	
11	
9	
7	
5	
13	
8	
11	
10	
6	
6	
10	
7	
10	
11	
9	
7	
9	
9	
9	
5	
3	
7	
5	
6	
4	
14	
10	
10	
12	
5	
10	
7	
10	
13	
12	
11	
9	
9	
8	
12	
6	
8	
9	
12	
8	
7	
12	
12	
4	
4	
9	
12	
10	
10	
8	
10	
9	
8	
6	
11	
7	
9	
6	
9	
14	
8	
6	
11	
13	
3	
12	
6	
6	
6	
5	
15	
8	
8	
12	
8	
5	
9	
9	
8	
7	
5	
11	
7	
5	
12	
7	
8	
9	
7	
7	
11	
8	
7	
7	
10	
10	
10	
10	
10	
9	
5	
8	
12	
7	
12	
13	
14	
7	
8	
8	
10	
11	
6	
10	
9	
7	
9	
7	
4	
15	
7	
15	
7	
6	
13	
13	
16	
4	
9	
10	
13	
5	
7	
3	
14	
9	
18	
6	
8	
9	
11	
6	
10	
3	
4	
7	
8	
4	
7	
6	
6	
9	
6	
10	
9	
6	
10	
9	
14	
8	
6	
7	
11	
8	
6	
10	
6	
5	
4	
8	
7	
9	
7	
13	
6	
11	
10	
13	
9	
8	
8	
7	
13	
6	
11	
6	
14	
8	
9	
11	
10	
11	
7	
5	
8	
5	
9	
12	
9	
5	
8	
13	
12	
5	
9	
3	
8	
4	
7	
13	
7	
10	
6	
7	
6	
8	
8	
7	
5	
10	
9	
8	
12	
7	
8	
1	
8	
9	
7	
10	
7	
3	
13	
8	
9	
12	
4	
5	
11	
8	
15	
11	
9	
9	
4	
6	
10	
7	
3	
15	
11	
14	
8	
9	
9	
15	
6	
6	
7	
8	
9	
12	
4	
11	
13	
7	
6	
5	
8	
8	
10	
11	
4	
7	
10	
8	
6	
7	
15	
6	
8	
7	
7	
7	
8	
8	
6	
7	
11	
8	
5	
5	
6	
7	
4	
11	
8	
6	
5	
12	
9	
8	
6	
5	
11	
7	
7	
9	
6	
8	
11	
5	
11	
9	
11	
8	
11	
8	
11	
6	
9	
10	
11	
9	
8	
4	
8	
7	
8	
7	
9	
9	
6	
7	
8	
12	
7	
7	
11	
8	
7	
8	
11	
6	
6	
9	
6	
9	
7	
9	
6	
13	
10	
9	
5	
7	
10	
5	
9	
9	
5	
11	
8	
7	
6	
8	
9	
7	
9	
7	
11	
5	
6	
9	
10	
11	
9	
5	
8	
7	
9	
3	
6	
12	
8	
4	
8	
6	
5	
6	
15	
6	
5	
3	
8	
8	
1	
11	
7	
12	
7	
7	
12	
4	
3	
4	
11	
7	
5	
5	
7	
10	
7	
2	
4	
8	
8	
14	
3	
4	
6	
9	
8	
7	
4	
5	
6	
4	
7	
7	
10	
11	
4	
6	
9	
6	
9	
11	
12	
10	
8	
11	
6	
8	
4	
