#PicoHarp 300  Histogram Data			03/27/2023 12:11:45 PM
#channels per curve
15625
#display curve no.
0	
#memory block no.
0	
#ns/channel
0.1280	
#counts
2	
2	
2	
3	
4	
2	
0	
3	
4	
6	
3	
1	
2	
3	
3	
2	
3	
2	
0	
3	
3	
1	
1	
4	
1	
5	
3	
4	
1	
1	
1	
0	
3	
0	
1	
2	
3	
4	
1	
0	
0	
4	
5	
5	
3	
3	
4	
2	
0	
2	
4	
7	
2	
2	
1	
5	
4	
2	
4	
2	
3	
2	
2	
3	
1	
5	
9	
11	
30	
85	
145	
234	
374	
558	
687	
789	
858	
871	
948	
1000	
963	
903	
917	
925	
969	
941	
926	
943	
900	
953	
925	
956	
899	
910	
868	
919	
884	
935	
872	
870	
906	
831	
849	
896	
807	
827	
850	
857	
865	
812	
846	
773	
856	
799	
830	
830	
841	
815	
762	
812	
770	
805	
776	
820	
823	
786	
810	
794	
760	
808	
835	
761	
768	
747	
747	
755	
712	
767	
765	
788	
696	
727	
704	
689	
770	
748	
716	
711	
712	
728	
704	
758	
727	
719	
769	
704	
675	
714	
711	
710	
726	
659	
712	
739	
650	
675	
744	
748	
717	
646	
683	
694	
743	
680	
735	
734	
661	
665	
686	
673	
671	
704	
670	
684	
669	
666	
671	
726	
665	
683	
644	
681	
635	
671	
716	
661	
662	
667	
619	
648	
670	
699	
659	
636	
659	
659	
659	
651	
615	
673	
614	
650	
648	
639	
609	
632	
672	
603	
631	
626	
619	
613	
620	
668	
576	
615	
689	
616	
637	
604	
634	
581	
602	
617	
592	
573	
583	
660	
575	
597	
655	
610	
559	
552	
571	
603	
555	
563	
609	
627	
623	
612	
566	
614	
579	
570	
592	
564	
587	
585	
596	
581	
549	
596	
573	
597	
537	
546	
536	
560	
571	
547	
551	
568	
571	
541	
535	
584	
585	
530	
511	
566	
566	
550	
552	
549	
555	
502	
554	
545	
536	
498	
511	
534	
541	
552	
588	
523	
508	
535	
533	
510	
559	
533	
528	
532	
538	
467	
529	
533	
545	
531	
545	
514	
520	
549	
534	
518	
501	
530	
486	
549	
475	
510	
505	
550	
490	
488	
491	
532	
502	
527	
456	
522	
500	
491	
468	
499	
492	
467	
462	
510	
475	
502	
484	
473	
458	
493	
510	
504	
499	
471	
493	
493	
471	
477	
492	
493	
476	
493	
509	
514	
442	
458	
459	
491	
468	
499	
475	
461	
481	
463	
460	
486	
518	
518	
482	
488	
445	
493	
423	
454	
411	
493	
479	
453	
483	
494	
471	
445	
436	
440	
458	
465	
408	
424	
463	
474	
437	
436	
456	
470	
438	
415	
440	
437	
467	
430	
423	
439	
436	
476	
437	
409	
470	
455	
465	
418	
448	
428	
405	
437	
419	
432	
445	
425	
431	
436	
420	
395	
415	
382	
447	
426	
412	
425	
423	
438	
468	
455	
380	
413	
387	
456	
407	
451	
433	
430	
417	
377	
395	
408	
428	
393	
396	
428	
419	
358	
396	
393	
402	
373	
383	
367	
380	
460	
402	
397	
410	
435	
409	
386	
400	
386	
396	
386	
419	
363	
415	
394	
406	
412	
411	
399	
381	
380	
388	
405	
388	
393	
385	
390	
372	
393	
360	
377	
362	
385	
362	
385	
367	
372	
352	
400	
381	
365	
381	
381	
396	
391	
375	
387	
380	
366	
395	
370	
365	
345	
370	
380	
394	
354	
363	
391	
350	
366	
371	
373	
355	
352	
371	
384	
386	
348	
376	
347	
354	
362	
358	
364	
381	
349	
345	
359	
346	
340	
327	
329	
376	
365	
352	
352	
372	
346	
354	
334	
332	
345	
366	
365	
356	
357	
372	
386	
350	
377	
343	
351	
374	
341	
338	
379	
354	
348	
328	
327	
337	
344	
329	
372	
336	
315	
323	
350	
333	
327	
330	
358	
312	
340	
346	
340	
352	
325	
322	
308	
329	
352	
331	
365	
304	
318	
325	
299	
317	
337	
324	
360	
334	
310	
324	
314	
324	
309	
301	
322	
321	
311	
341	
307	
287	
341	
314	
316	
318	
284	
339	
300	
302	
318	
354	
336	
306	
305	
299	
298	
282	
295	
313	
304	
303	
319	
296	
317	
303	
290	
314	
305	
299	
303	
290	
332	
320	
323	
323	
265	
289	
317	
273	
328	
303	
281	
300	
314	
300	
259	
302	
310	
315	
291	
318	
267	
260	
308	
287	
312	
284	
283	
300	
308	
288	
304	
290	
301	
288	
280	
299	
273	
274	
305	
260	
274	
272	
289	
291	
301	
281	
232	
284	
289	
278	
285	
303	
278	
262	
272	
283	
277	
272	
279	
272	
274	
270	
268	
263	
270	
254	
269	
257	
264	
287	
242	
271	
272	
285	
282	
280	
269	
263	
250	
271	
277	
228	
255	
250	
250	
261	
256	
264	
271	
225	
289	
251	
274	
263	
277	
256	
273	
255	
238	
251	
274	
276	
261	
265	
275	
254	
250	
272	
274	
255	
271	
276	
242	
251	
261	
238	
246	
255	
250	
261	
276	
250	
249	
248	
254	
237	
236	
266	
219	
240	
234	
250	
262	
239	
230	
237	
221	
250	
245	
254	
241	
238	
259	
232	
252	
248	
241	
267	
226	
251	
240	
262	
244	
225	
224	
232	
235	
239	
250	
246	
237	
239	
222	
233	
246	
247	
212	
226	
242	
249	
249	
221	
238	
240	
228	
233	
246	
233	
258	
248	
234	
223	
234	
238	
238	
225	
232	
252	
255	
227	
227	
251	
262	
225	
266	
224	
267	
236	
235	
195	
233	
219	
209	
227	
244	
233	
214	
205	
202	
251	
240	
198	
222	
213	
233	
233	
192	
237	
212	
216	
226	
219	
217	
220	
224	
235	
203	
194	
211	
227	
205	
212	
212	
207	
189	
227	
229	
200	
195	
227	
232	
205	
221	
194	
224	
237	
180	
229	
229	
222	
185	
196	
186	
202	
209	
216	
206	
200	
218	
236	
201	
201	
211	
217	
205	
210	
189	
172	
211	
201	
185	
217	
225	
239	
211	
206	
209	
210	
233	
188	
213	
203	
213	
177	
204	
203	
198	
207	
198	
199	
173	
198	
194	
188	
195	
219	
215	
193	
194	
230	
198	
221	
201	
198	
187	
179	
200	
195	
203	
205	
205	
211	
174	
178	
197	
211	
192	
190	
200	
206	
188	
209	
169	
183	
204	
177	
210	
210	
185	
217	
189	
192	
219	
191	
195	
194	
185	
192	
184	
185	
192	
193	
199	
214	
190	
193	
176	
187	
203	
217	
185	
175	
207	
189	
192	
195	
181	
188	
201	
188	
191	
190	
187	
184	
190	
178	
192	
188	
164	
161	
201	
218	
188	
179	
191	
181	
209	
180	
187	
176	
186	
174	
181	
201	
181	
176	
198	
172	
180	
179	
169	
184	
198	
140	
161	
180	
180	
160	
180	
175	
165	
165	
151	
198	
174	
149	
147	
171	
165	
172	
173	
176	
163	
157	
176	
179	
182	
165	
171	
169	
167	
188	
138	
158	
179	
169	
173	
171	
183	
182	
178	
175	
171	
147	
156	
159	
143	
166	
175	
167	
153	
160	
180	
159	
141	
169	
158	
172	
162	
167	
178	
153	
159	
160	
167	
147	
163	
155	
169	
173	
169	
162	
147	
161	
154	
192	
172	
167	
197	
176	
145	
139	
176	
170	
158	
171	
207	
159	
157	
166	
166	
169	
178	
173	
143	
138	
132	
154	
174	
154	
158	
159	
151	
162	
142	
150	
150	
155	
135	
141	
164	
152	
155	
171	
171	
156	
166	
134	
152	
153	
142	
143	
134	
156	
159	
143	
157	
148	
153	
163	
155	
156	
130	
142	
136	
153	
139	
174	
143	
132	
152	
157	
152	
135	
153	
149	
146	
139	
179	
175	
161	
152	
141	
151	
138	
167	
158	
151	
172	
128	
150	
131	
161	
151	
140	
160	
150	
145	
136	
153	
156	
165	
151	
159	
140	
123	
159	
146	
143	
137	
148	
141	
117	
140	
146	
134	
154	
116	
145	
139	
131	
163	
159	
131	
135	
124	
106	
153	
143	
158	
147	
168	
117	
143	
149	
136	
155	
141	
148	
128	
131	
135	
130	
121	
139	
120	
157	
136	
113	
121	
152	
137	
152	
135	
133	
130	
129	
159	
144	
161	
153	
138	
146	
138	
142	
118	
127	
144	
157	
111	
132	
103	
139	
136	
137	
124	
136	
130	
128	
119	
145	
121	
134	
136	
121	
134	
146	
133	
130	
130	
126	
126	
143	
128	
138	
119	
125	
135	
121	
141	
134	
131	
145	
138	
123	
116	
129	
141	
126	
127	
135	
136	
132	
137	
110	
119	
117	
115	
116	
132	
126	
136	
113	
146	
135	
126	
134	
124	
125	
129	
117	
142	
137	
139	
130	
147	
126	
118	
128	
128	
128	
105	
122	
128	
132	
129	
120	
126	
144	
110	
125	
111	
144	
101	
149	
143	
139	
122	
117	
123	
120	
139	
124	
118	
126	
116	
121	
100	
124	
103	
121	
129	
106	
110	
114	
125	
129	
99	
118	
127	
103	
117	
121	
116	
113	
121	
129	
114	
123	
112	
113	
134	
110	
107	
106	
115	
121	
93	
120	
110	
120	
116	
99	
109	
120	
124	
118	
121	
102	
112	
112	
112	
118	
110	
106	
98	
113	
115	
110	
116	
112	
112	
113	
98	
115	
118	
104	
107	
116	
116	
120	
117	
114	
103	
113	
105	
91	
105	
120	
123	
114	
82	
107	
123	
119	
107	
102	
109	
95	
113	
122	
104	
120	
97	
119	
95	
99	
115	
112	
110	
103	
96	
114	
125	
115	
108	
105	
107	
97	
94	
115	
95	
128	
99	
113	
107	
106	
105	
116	
113	
121	
124	
94	
124	
94	
121	
102	
115	
122	
102	
100	
120	
91	
98	
114	
84	
89	
105	
101	
98	
98	
88	
107	
93	
113	
108	
102	
85	
107	
110	
96	
97	
95	
96	
93	
100	
94	
104	
121	
100	
101	
115	
94	
84	
84	
92	
112	
100	
94	
111	
83	
96	
97	
98	
98	
91	
91	
99	
99	
108	
90	
100	
98	
87	
77	
102	
108	
131	
79	
85	
104	
98	
89	
109	
90	
100	
90	
87	
97	
99	
96	
101	
98	
101	
90	
99	
104	
104	
92	
101	
102	
90	
98	
78	
101	
91	
91	
110	
99	
80	
98	
96	
84	
91	
91	
82	
83	
95	
81	
101	
77	
76	
85	
95	
87	
100	
89	
90	
94	
91	
82	
86	
98	
108	
105	
113	
92	
97	
80	
88	
83	
83	
98	
85	
92	
91	
83	
86	
89	
96	
90	
97	
86	
103	
73	
88	
95	
89	
95	
92	
76	
88	
90	
96	
77	
78	
96	
89	
80	
77	
95	
77	
86	
106	
90	
86	
78	
75	
92	
99	
77	
94	
85	
64	
81	
90	
91	
71	
112	
94	
80	
83	
83	
107	
89	
79	
100	
78	
89	
81	
110	
69	
76	
93	
79	
78	
86	
82	
93	
80	
96	
80	
84	
90	
96	
81	
94	
103	
91	
85	
86	
98	
97	
82	
98	
83	
79	
90	
98	
88	
75	
87	
72	
74	
80	
89	
85	
93	
85	
96	
83	
90	
95	
92	
94	
76	
96	
91	
91	
75	
75	
75	
75	
100	
81	
71	
91	
74	
77	
77	
89	
84	
77	
77	
71	
74	
66	
78	
79	
81	
72	
90	
73	
58	
52	
79	
77	
88	
81	
90	
76	
63	
76	
82	
75	
70	
84	
76	
79	
66	
87	
93	
79	
83	
78	
76	
72	
80	
69	
67	
89	
72	
70	
76	
69	
66	
69	
81	
60	
81	
67	
63	
67	
76	
84	
61	
80	
72	
68	
72	
67	
81	
79	
89	
82	
69	
79	
79	
83	
77	
75	
82	
75	
77	
79	
58	
80	
78	
77	
69	
80	
63	
89	
80	
68	
70	
67	
72	
90	
74	
71	
74	
80	
69	
71	
80	
58	
61	
67	
44	
69	
80	
58	
73	
72	
52	
59	
73	
79	
74	
91	
88	
79	
65	
83	
89	
89	
81	
82	
73	
87	
68	
78	
55	
65	
63	
70	
79	
80	
72	
60	
85	
65	
65	
62	
70	
63	
63	
69	
76	
64	
66	
77	
69	
70	
73	
70	
73	
51	
60	
87	
68	
58	
66	
83	
69	
73	
66	
71	
81	
62	
77	
71	
65	
68	
76	
51	
59	
66	
77	
69	
81	
63	
67	
67	
77	
64	
69	
65	
54	
70	
69	
71	
58	
62	
71	
67	
78	
70	
81	
65	
77	
70	
73	
65	
55	
59	
57	
54	
57	
64	
66	
64	
52	
76	
62	
63	
76	
70	
56	
67	
70	
62	
59	
68	
60	
70	
50	
66	
64	
58	
69	
65	
69	
72	
71	
67	
47	
70	
70	
72	
54	
81	
72	
59	
53	
60	
51	
61	
54	
54	
67	
77	
64	
61	
70	
51	
68	
53	
59	
65	
73	
67	
61	
52	
64	
45	
54	
61	
54	
61	
66	
62	
69	
57	
55	
69	
52	
51	
61	
63	
65	
56	
68	
56	
64	
64	
56	
58	
64	
64	
67	
58	
68	
71	
55	
68	
79	
61	
68	
60	
66	
64	
61	
60	
50	
61	
63	
54	
61	
50	
64	
64	
51	
61	
64	
53	
63	
46	
56	
68	
68	
61	
66	
59	
73	
59	
57	
56	
67	
54	
69	
52	
61	
59	
56	
50	
49	
68	
54	
54	
60	
52	
56	
48	
63	
57	
54	
51	
64	
57	
65	
61	
58	
42	
61	
57	
53	
70	
51	
58	
53	
43	
42	
57	
54	
47	
46	
46	
51	
56	
74	
60	
67	
56	
66	
57	
59	
57	
59	
69	
52	
59	
48	
53	
55	
54	
68	
59	
56	
55	
59	
57	
51	
60	
51	
62	
52	
65	
64	
58	
45	
61	
65	
57	
51	
59	
52	
55	
57	
52	
49	
57	
57	
47	
54	
61	
53	
62	
69	
58	
61	
54	
68	
59	
63	
41	
57	
61	
53	
51	
57	
65	
60	
52	
50	
49	
45	
61	
62	
50	
45	
55	
51	
48	
42	
44	
44	
36	
42	
47	
53	
56	
59	
61	
66	
47	
45	
58	
53	
50	
42	
51	
51	
56	
55	
61	
48	
52	
55	
58	
56	
58	
54	
40	
46	
64	
47	
38	
46	
46	
42	
47	
54	
57	
55	
61	
53	
59	
55	
58	
53	
44	
50	
42	
55	
62	
50	
67	
52	
52	
47	
40	
50	
39	
46	
45	
43	
49	
45	
66	
55	
50	
50	
47	
36	
50	
52	
47	
41	
46	
47	
42	
51	
55	
55	
50	
58	
48	
53	
43	
54	
53	
49	
48	
36	
55	
41	
53	
40	
50	
50	
54	
51	
46	
57	
47	
44	
42	
51	
45	
53	
44	
48	
46	
42	
36	
44	
58	
42	
51	
57	
39	
47	
48	
59	
63	
45	
41	
70	
33	
39	
39	
50	
57	
45	
45	
47	
42	
46	
56	
46	
51	
49	
43	
49	
51	
46	
38	
42	
47	
39	
50	
49	
32	
51	
41	
45	
55	
44	
47	
63	
51	
53	
48	
36	
44	
42	
51	
42	
47	
33	
39	
45	
47	
59	
43	
45	
37	
31	
39	
38	
44	
47	
40	
37	
51	
53	
42	
44	
51	
39	
45	
32	
41	
52	
39	
51	
50	
61	
54	
42	
44	
40	
33	
55	
37	
52	
42	
33	
44	
28	
44	
36	
48	
40	
42	
50	
48	
33	
36	
45	
37	
48	
47	
44	
54	
34	
57	
51	
48	
39	
45	
38	
46	
57	
50	
34	
54	
53	
45	
43	
36	
49	
56	
42	
38	
44	
39	
37	
36	
44	
40	
42	
35	
31	
39	
42	
44	
44	
54	
43	
41	
43	
30	
42	
44	
48	
57	
43	
50	
45	
45	
46	
26	
44	
35	
48	
43	
46	
42	
42	
39	
42	
32	
46	
45	
48	
40	
43	
31	
33	
37	
49	
32	
43	
38	
31	
43	
43	
41	
38	
43	
48	
36	
42	
52	
41	
35	
35	
44	
33	
38	
26	
35	
22	
34	
36	
34	
46	
43	
36	
44	
36	
34	
47	
43	
37	
49	
40	
32	
45	
45	
44	
35	
45	
57	
38	
29	
38	
34	
43	
40	
32	
36	
41	
40	
40	
46	
34	
47	
40	
33	
30	
38	
40	
41	
44	
27	
44	
34	
49	
43	
31	
45	
37	
29	
40	
46	
50	
32	
38	
49	
44	
38	
37	
36	
33	
33	
34	
36	
27	
34	
39	
44	
34	
33	
40	
22	
34	
42	
33	
39	
27	
35	
36	
27	
30	
36	
37	
53	
37	
36	
43	
40	
35	
46	
38	
34	
35	
30	
44	
39	
40	
40	
25	
25	
38	
30	
34	
36	
36	
32	
42	
32	
31	
37	
38	
34	
35	
34	
32	
34	
52	
41	
48	
48	
29	
46	
35	
29	
31	
39	
36	
36	
29	
34	
38	
45	
34	
36	
39	
34	
54	
42	
36	
25	
29	
35	
33	
46	
33	
25	
37	
38	
41	
26	
32	
34	
29	
39	
36	
30	
40	
40	
25	
24	
31	
47	
39	
33	
34	
30	
30	
30	
43	
42	
33	
43	
28	
36	
37	
40	
30	
33	
26	
32	
35	
27	
48	
30	
28	
34	
28	
42	
44	
38	
36	
43	
32	
26	
32	
44	
22	
48	
37	
38	
40	
41	
31	
38	
33	
35	
24	
36	
45	
30	
35	
25	
25	
29	
38	
28	
33	
36	
41	
43	
31	
29	
32	
26	
22	
28	
32	
32	
35	
29	
32	
31	
41	
32	
24	
26	
34	
23	
27	
40	
29	
39	
39	
52	
32	
41	
30	
36	
32	
34	
31	
36	
38	
35	
28	
27	
37	
36	
34	
28	
38	
29	
32	
26	
26	
32	
25	
37	
30	
33	
38	
30	
29	
29	
31	
34	
39	
24	
36	
36	
33	
39	
34	
32	
30	
28	
23	
33	
29	
31	
31	
36	
30	
27	
27	
31	
28	
27	
35	
37	
37	
24	
24	
34	
32	
30	
36	
38	
30	
30	
24	
29	
36	
36	
26	
34	
22	
33	
28	
29	
23	
34	
39	
40	
30	
30	
32	
36	
28	
37	
32	
29	
33	
16	
28	
18	
38	
25	
32	
35	
31	
37	
33	
35	
42	
31	
34	
30	
34	
32	
26	
24	
24	
33	
29	
35	
21	
27	
32	
28	
27	
25	
30	
23	
37	
25	
33	
29	
30	
27	
30	
40	
28	
32	
24	
27	
30	
23	
30	
30	
29	
41	
29	
29	
22	
32	
28	
25	
24	
31	
26	
33	
26	
28	
29	
27	
25	
31	
35	
34	
37	
36	
29	
23	
21	
27	
24	
22	
28	
34	
22	
24	
31	
29	
33	
29	
27	
33	
32	
26	
31	
31	
32	
29	
22	
23	
31	
24	
35	
29	
31	
26	
22	
26	
31	
31	
25	
24	
31	
28	
31	
25	
26	
26	
28	
30	
30	
22	
32	
28	
31	
26	
28	
26	
37	
22	
30	
25	
25	
24	
27	
28	
35	
20	
36	
39	
36	
27	
28	
32	
35	
26	
28	
24	
25	
21	
20	
31	
31	
28	
28	
27	
31	
32	
25	
26	
28	
30	
28	
24	
38	
29	
26	
22	
29	
25	
28	
34	
26	
28	
41	
20	
30	
26	
37	
20	
21	
33	
27	
28	
28	
30	
27	
30	
29	
30	
18	
22	
27	
44	
35	
28	
23	
25	
13	
25	
22	
25	
24	
28	
38	
35	
30	
14	
31	
26	
26	
32	
29	
22	
28	
33	
23	
22	
20	
17	
31	
29	
25	
29	
32	
31	
27	
23	
26	
17	
29	
29	
30	
16	
26	
29	
25	
24	
30	
33	
23	
25	
33	
27	
19	
32	
24	
25	
30	
20	
22	
25	
23	
31	
24	
23	
27	
30	
27	
29	
29	
33	
16	
18	
24	
30	
18	
22	
29	
25	
19	
21	
25	
22	
25	
18	
18	
16	
24	
32	
33	
21	
26	
24	
33	
29	
25	
24	
27	
25	
24	
20	
30	
32	
20	
28	
15	
30	
27	
23	
29	
32	
27	
24	
23	
39	
26	
29	
26	
25	
28	
20	
30	
25	
22	
22	
22	
25	
24	
24	
31	
23	
40	
30	
21	
21	
26	
25	
24	
25	
15	
25	
11	
19	
31	
14	
28	
30	
28	
32	
26	
22	
18	
23	
30	
31	
24	
17	
19	
21	
36	
24	
22	
23	
29	
26	
24	
23	
38	
30	
25	
22	
30	
23	
25	
19	
32	
28	
27	
16	
23	
30	
21	
23	
20	
19	
12	
19	
20	
26	
24	
20	
29	
21	
30	
24	
20	
25	
19	
17	
25	
31	
28	
19	
23	
17	
21	
22	
31	
16	
26	
18	
19	
18	
22	
23	
21	
23	
24	
19	
26	
18	
27	
20	
26	
16	
23	
19	
23	
19	
28	
37	
24	
23	
28	
24	
20	
33	
25	
16	
26	
21	
28	
24	
18	
17	
25	
21	
29	
26	
24	
20	
20	
28	
15	
31	
28	
24	
24	
18	
23	
20	
22	
24	
15	
28	
22	
24	
20	
24	
19	
16	
24	
29	
17	
16	
32	
22	
20	
20	
19	
28	
20	
22	
21	
12	
19	
29	
22	
20	
17	
25	
28	
24	
21	
18	
25	
19	
22	
17	
24	
13	
17	
17	
25	
27	
20	
24	
12	
19	
19	
23	
21	
20	
18	
23	
17	
22	
23	
21	
18	
24	
21	
28	
21	
25	
29	
23	
23	
23	
15	
20	
22	
16	
26	
23	
21	
16	
22	
19	
21	
18	
24	
27	
26	
20	
17	
18	
17	
23	
15	
19	
25	
14	
17	
12	
15	
33	
20	
23	
20	
17	
24	
18	
11	
17	
19	
22	
21	
18	
18	
29	
21	
23	
16	
15	
24	
18	
24	
20	
26	
14	
14	
21	
18	
23	
17	
22	
18	
26	
25	
22	
25	
19	
20	
24	
20	
25	
18	
17	
16	
20	
22	
22	
20	
25	
19	
17	
18	
15	
23	
26	
19	
21	
16	
18	
19	
24	
29	
18	
26	
21	
20	
20	
20	
18	
17	
16	
14	
13	
15	
20	
25	
29	
21	
25	
22	
22	
14	
13	
14	
16	
19	
18	
26	
30	
21	
16	
17	
14	
25	
18	
17	
24	
20	
23	
10	
10	
17	
11	
23	
26	
12	
22	
21	
11	
11	
19	
19	
21	
19	
21	
17	
22	
13	
25	
20	
13	
37	
18	
20	
18	
17	
18	
22	
13	
15	
15	
8	
16	
20	
15	
14	
14	
21	
15	
18	
14	
20	
23	
10	
17	
26	
18	
18	
17	
23	
27	
16	
16	
22	
22	
16	
15	
16	
14	
21	
18	
21	
19	
15	
23	
19	
22	
11	
18	
22	
11	
9	
22	
21	
11	
15	
19	
17	
19	
22	
9	
17	
19	
19	
13	
18	
10	
20	
19	
15	
25	
14	
22	
18	
18	
19	
20	
19	
22	
21	
17	
17	
14	
18	
22	
11	
18	
18	
29	
18	
13	
28	
14	
14	
18	
16	
15	
19	
18	
12	
19	
20	
17	
24	
16	
19	
28	
14	
10	
16	
10	
16	
18	
16	
27	
16	
19	
10	
20	
13	
18	
18	
20	
20	
15	
26	
21	
19	
18	
11	
14	
19	
22	
20	
19	
24	
14	
18	
21	
23	
13	
23	
23	
23	
16	
23	
16	
21	
15	
19	
17	
24	
17	
17	
20	
13	
18	
18	
11	
13	
21	
12	
10	
5	
13	
16	
20	
8	
26	
16	
16	
17	
15	
9	
19	
19	
24	
19	
19	
27	
21	
13	
17	
20	
21	
24	
19	
15	
8	
16	
15	
26	
16	
20	
18	
21	
20	
17	
28	
27	
22	
9	
11	
10	
16	
14	
22	
19	
17	
17	
27	
10	
14	
18	
20	
13	
13	
12	
16	
23	
19	
17	
16	
10	
13	
17	
10	
11	
11	
19	
20	
17	
15	
23	
15	
17	
16	
14	
17	
18	
21	
18	
22	
16	
13	
18	
18	
21	
17	
17	
17	
19	
13	
17	
17	
16	
14	
12	
16	
22	
15	
18	
20	
24	
14	
16	
16	
15	
12	
12	
20	
12	
16	
19	
19	
14	
11	
14	
10	
19	
17	
16	
17	
24	
16	
22	
17	
19	
18	
13	
21	
6	
13	
10	
23	
12	
20	
20	
15	
11	
23	
13	
18	
20	
23	
10	
13	
19	
14	
13	
13	
12	
12	
11	
24	
20	
14	
18	
14	
19	
21	
9	
19	
19	
19	
20	
13	
17	
17	
16	
16	
14	
26	
12	
13	
16	
10	
24	
9	
18	
25	
11	
10	
14	
17	
9	
9	
18	
14	
14	
18	
15	
15	
19	
12	
16	
16	
12	
18	
17	
17	
16	
13	
21	
18	
21	
13	
21	
14	
13	
22	
13	
12	
18	
19	
7	
12	
13	
14	
18	
24	
15	
11	
9	
17	
17	
11	
11	
23	
14	
16	
16	
13	
16	
23	
17	
12	
20	
13	
12	
13	
29	
16	
18	
12	
14	
15	
11	
19	
19	
15	
11	
16	
17	
14	
11	
19	
16	
16	
14	
15	
10	
11	
16	
12	
14	
7	
15	
13	
13	
16	
16	
21	
19	
13	
12	
11	
17	
22	
16	
10	
11	
13	
14	
29	
13	
12	
13	
14	
15	
16	
13	
15	
15	
18	
15	
11	
23	
12	
15	
14	
14	
15	
16	
13	
13	
16	
14	
11	
14	
9	
11	
11	
10	
16	
11	
14	
20	
14	
13	
12	
13	
21	
12	
11	
6	
15	
20	
8	
15	
10	
16	
15	
17	
12	
8	
24	
12	
5	
13	
17	
15	
15	
21	
14	
15	
18	
11	
9	
21	
6	
9	
8	
10	
22	
15	
9	
18	
13	
19	
15	
13	
17	
9	
11	
14	
21	
13	
12	
7	
19	
12	
9	
12	
12	
18	
13	
19	
17	
14	
12	
17	
18	
19	
18	
11	
13	
15	
8	
14	
14	
17	
13	
21	
9	
13	
12	
15	
13	
17	
13	
16	
11	
12	
14	
12	
12	
19	
11	
13	
7	
17	
11	
13	
18	
15	
10	
14	
15	
19	
6	
10	
18	
17	
11	
10	
13	
13	
10	
9	
9	
20	
8	
15	
7	
11	
11	
19	
16	
11	
17	
12	
14	
12	
16	
11	
17	
14	
23	
14	
10	
15	
14	
17	
8	
17	
21	
12	
6	
12	
21	
25	
23	
12	
12	
15	
9	
14	
20	
16	
20	
6	
9	
15	
11	
10	
9	
12	
11	
14	
13	
16	
14	
15	
16	
7	
11	
14	
14	
13	
18	
11	
12	
9	
13	
18	
14	
21	
9	
15	
15	
10	
13	
13	
9	
11	
16	
11	
14	
18	
11	
14	
11	
18	
19	
24	
10	
11	
17	
19	
23	
14	
7	
10	
15	
20	
17	
11	
16	
9	
15	
11	
5	
15	
12	
17	
13	
12	
13	
8	
13	
14	
18	
16	
12	
8	
10	
17	
15	
11	
13	
22	
13	
15	
16	
9	
11	
15	
17	
12	
12	
14	
5	
10	
20	
8	
10	
11	
10	
18	
17	
15	
17	
18	
8	
22	
13	
4	
13	
11	
15	
6	
16	
12	
9	
19	
14	
12	
17	
6	
10	
11	
14	
9	
17	
8	
7	
12	
12	
12	
13	
12	
13	
12	
14	
9	
9	
10	
8	
10	
7	
11	
16	
17	
10	
13	
7	
11	
10	
9	
14	
16	
13	
16	
11	
10	
17	
18	
12	
10	
8	
8	
11	
19	
9	
7	
13	
10	
13	
13	
4	
9	
15	
10	
17	
10	
9	
4	
10	
16	
11	
13	
12	
15	
17	
18	
17	
17	
20	
13	
7	
15	
14	
11	
15	
14	
13	
8	
11	
11	
10	
15	
10	
7	
8	
7	
13	
14	
12	
7	
15	
10	
7	
6	
10	
13	
18	
9	
7	
17	
9	
8	
15	
5	
7	
8	
12	
11	
15	
11	
12	
14	
12	
10	
6	
13	
12	
15	
13	
7	
13	
10	
6	
9	
7	
15	
9	
15	
10	
7	
8	
11	
10	
8	
6	
13	
12	
11	
21	
13	
7	
12	
11	
10	
11	
13	
12	
10	
16	
11	
6	
10	
6	
14	
13	
12	
13	
14	
13	
15	
7	
4	
10	
14	
11	
11	
11	
7	
6	
11	
9	
9	
11	
12	
13	
18	
9	
7	
9	
10	
10	
10	
14	
12	
12	
11	
8	
14	
11	
12	
11	
8	
16	
11	
10	
9	
10	
13	
16	
8	
10	
7	
8	
7	
4	
9	
10	
14	
6	
8	
11	
11	
10	
12	
17	
14	
13	
8	
8	
10	
9	
11	
11	
9	
9	
16	
18	
19	
9	
14	
25	
10	
4	
9	
11	
13	
16	
11	
9	
10	
6	
16	
10	
8	
11	
7	
12	
13	
7	
16	
13	
15	
13	
10	
8	
13	
7	
12	
13	
7	
10	
19	
9	
14	
14	
10	
7	
7	
6	
4	
11	
8	
11	
9	
9	
8	
11	
11	
13	
6	
6	
17	
4	
11	
14	
5	
11	
13	
14	
9	
10	
10	
14	
10	
8	
13	
11	
14	
12	
13	
3	
7	
8	
12	
14	
6	
7	
12	
8	
13	
14	
10	
11	
12	
7	
13	
12	
9	
8	
7	
17	
11	
12	
13	
8	
9	
10	
7	
9	
13	
10	
7	
12	
7	
13	
14	
8	
14	
7	
9	
7	
12	
6	
11	
11	
5	
9	
9	
12	
10	
10	
10	
7	
12	
11	
9	
4	
6	
10	
10	
11	
9	
11	
12	
9	
17	
7	
7	
14	
11	
14	
8	
13	
13	
8	
10	
5	
14	
8	
11	
15	
6	
6	
16	
14	
5	
13	
7	
9	
7	
3	
11	
7	
10	
12	
12	
10	
14	
14	
6	
11	
8	
8	
11	
12	
13	
3	
19	
6	
11	
7	
15	
11	
15	
15	
7	
11	
9	
6	
9	
11	
7	
12	
5	
9	
7	
11	
9	
14	
6	
10	
12	
19	
12	
11	
15	
11	
15	
12	
11	
6	
11	
6	
13	
13	
11	
7	
6	
8	
9	
8	
12	
6	
13	
11	
9	
12	
10	
11	
8	
11	
15	
8	
6	
13	
7	
13	
11	
3	
8	
14	
11	
14	
11	
8	
9	
11	
8	
12	
7	
10	
10	
11	
11	
7	
7	
9	
15	
7	
5	
2	
9	
6	
15	
8	
8	
8	
10	
8	
9	
7	
12	
11	
5	
8	
5	
16	
5	
4	
10	
6	
7	
12	
13	
13	
7	
11	
7	
11	
12	
11	
14	
9	
10	
7	
7	
5	
12	
9	
5	
6	
9	
9	
13	
11	
7	
17	
9	
7	
6	
10	
4	
7	
13	
6	
11	
9	
14	
8	
6	
2	
11	
7	
8	
16	
13	
6	
11	
6	
11	
15	
9	
5	
7	
11	
7	
16	
12	
11	
11	
10	
8	
7	
9	
7	
6	
9	
8	
13	
11	
10	
8	
12	
9	
6	
9	
6	
6	
11	
10	
9	
14	
9	
7	
12	
18	
8	
5	
8	
10	
2	
6	
7	
8	
12	
10	
7	
4	
14	
10	
15	
14	
15	
15	
5	
11	
8	
12	
10	
10	
6	
10	
9	
17	
12	
7	
5	
6	
10	
9	
6	
7	
6	
9	
11	
4	
10	
11	
12	
13	
11	
10	
9	
10	
14	
14	
8	
5	
14	
10	
5	
5	
12	
5	
7	
6	
10	
9	
11	
9	
4	
9	
13	
8	
11	
9	
8	
7	
11	
9	
5	
5	
6	
11	
9	
12	
10	
5	
12	
15	
12	
6	
14	
8	
6	
6	
16	
6	
10	
10	
11	
10	
11	
10	
2	
13	
7	
9	
8	
11	
9	
5	
10	
9	
9	
5	
5	
7	
9	
8	
8	
7	
9	
7	
6	
7	
12	
11	
8	
5	
6	
7	
4	
6	
10	
4	
7	
7	
11	
4	
9	
4	
7	
6	
5	
6	
8	
11	
2	
10	
6	
9	
7	
10	
11	
6	
10	
11	
10	
7	
8	
4	
14	
8	
13	
9	
11	
13	
10	
9	
11	
10	
7	
13	
11	
9	
9	
16	
4	
10	
8	
9	
9	
5	
9	
11	
10	
6	
12	
9	
7	
8	
5	
7	
10	
10	
5	
5	
10	
9	
10	
12	
6	
9	
9	
7	
7	
11	
9	
12	
8	
15	
9	
10	
6	
12	
12	
3	
6	
8	
7	
13	
7	
11	
11	
9	
7	
6	
4	
9	
9	
11	
11	
6	
8	
10	
11	
9	
13	
8	
8	
8	
9	
8	
9	
7	
9	
12	
11	
7	
8	
5	
4	
5	
8	
12	
11	
6	
8	
11	
11	
7	
10	
9	
5	
5	
6	
10	
7	
9	
9	
4	
9	
4	
10	
11	
8	
1	
9	
10	
7	
5	
4	
7	
11	
9	
7	
4	
8	
14	
9	
13	
11	
7	
11	
4	
9	
6	
4	
6	
11	
10	
10	
7	
11	
8	
8	
7	
6	
9	
11	
6	
8	
8	
3	
7	
11	
5	
7	
5	
7	
8	
11	
5	
7	
6	
12	
7	
5	
5	
8	
4	
5	
6	
8	
6	
11	
7	
8	
6	
11	
11	
10	
7	
5	
8	
8	
9	
5	
8	
10	
8	
16	
5	
9	
10	
5	
9	
8	
8	
9	
9	
9	
8	
8	
9	
12	
6	
9	
5	
12	
6	
6	
9	
9	
11	
7	
9	
6	
7	
5	
9	
10	
5	
8	
6	
11	
6	
6	
6	
7	
5	
7	
10	
6	
6	
11	
9	
8	
5	
7	
11	
3	
7	
8	
8	
11	
8	
9	
10	
10	
7	
7	
2	
6	
6	
12	
11	
8	
9	
5	
6	
9	
8	
5	
6	
2	
10	
13	
6	
9	
13	
17	
7	
11	
8	
10	
5	
12	
8	
6	
7	
7	
5	
11	
5	
10	
10	
5	
5	
13	
8	
12	
6	
5	
8	
11	
5	
5	
7	
6	
7	
6	
3	
10	
5	
7	
8	
6	
6	
9	
5	
11	
6	
11	
8	
9	
9	
8	
7	
9	
7	
8	
5	
6	
4	
5	
12	
7	
9	
4	
7	
8	
7	
3	
8	
9	
6	
11	
5	
14	
10	
9	
4	
3	
6	
10	
9	
4	
5	
12	
3	
11	
11	
6	
7	
4	
5	
7	
7	
10	
7	
7	
5	
3	
10	
8	
10	
8	
6	
6	
8	
4	
7	
7	
4	
8	
8	
7	
2	
12	
7	
6	
6	
12	
4	
4	
10	
7	
4	
4	
11	
9	
8	
8	
10	
6	
11	
6	
8	
2	
3	
6	
8	
3	
4	
9	
6	
13	
5	
6	
8	
3	
7	
10	
5	
7	
12	
5	
11	
6	
7	
8	
7	
7	
10	
5	
9	
12	
9	
4	
9	
4	
3	
15	
11	
12	
12	
7	
3	
9	
2	
3	
9	
5	
3	
6	
7	
4	
6	
11	
7	
3	
8	
5	
10	
6	
3	
6	
11	
7	
8	
5	
7	
6	
11	
8	
7	
7	
9	
6	
16	
2	
5	
8	
3	
6	
8	
5	
9	
4	
8	
12	
5	
9	
7	
6	
7	
7	
9	
14	
7	
5	
4	
10	
9	
6	
5	
6	
3	
6	
6	
3	
3	
5	
0	
9	
12	
14	
10	
6	
6	
4	
8	
4	
6	
9	
3	
7	
6	
12	
6	
4	
8	
7	
6	
8	
7	
8	
6	
6	
9	
7	
8	
7	
1	
11	
8	
7	
6	
6	
10	
7	
9	
8	
13	
8	
3	
10	
10	
7	
5	
10	
7	
10	
2	
6	
8	
9	
6	
6	
3	
5	
10	
8	
9	
7	
2	
10	
11	
8	
7	
9	
4	
10	
7	
3	
10	
7	
3	
11	
6	
8	
9	
7	
7	
6	
9	
4	
8	
8	
7	
6	
6	
6	
9	
6	
4	
4	
9	
3	
6	
6	
4	
7	
10	
8	
6	
9	
5	
4	
1	
6	
9	
7	
4	
10	
5	
2	
7	
3	
15	
4	
4	
8	
6	
10	
5	
4	
5	
3	
4	
1	
3	
6	
7	
11	
8	
5	
3	
5	
5	
8	
6	
2	
7	
6	
4	
2	
6	
10	
6	
7	
3	
5	
6	
3	
8	
6	
8	
11	
8	
6	
6	
5	
3	
7	
9	
5	
4	
9	
7	
5	
5	
4	
8	
7	
10	
7	
6	
4	
10	
4	
9	
7	
6	
7	
6	
8	
10	
10	
6	
4	
7	
7	
11	
7	
2	
8	
6	
6	
9	
9	
4	
7	
11	
4	
5	
4	
3	
7	
5	
6	
4	
6	
6	
8	
5	
7	
7	
6	
3	
4	
5	
5	
2	
5	
5	
1	
4	
6	
4	
3	
3	
5	
5	
8	
6	
8	
9	
4	
8	
4	
5	
3	
8	
8	
8	
6	
3	
3	
8	
2	
4	
5	
6	
3	
9	
4	
6	
9	
8	
2	
3	
9	
4	
7	
3	
8	
14	
2	
6	
12	
10	
6	
6	
10	
4	
5	
3	
7	
10	
11	
11	
5	
5	
7	
3	
6	
5	
4	
8	
11	
8	
5	
1	
8	
6	
7	
6	
6	
7	
11	
5	
9	
5	
3	
5	
3	
5	
10	
3	
6	
6	
4	
10	
8	
8	
6	
10	
5	
4	
4	
7	
3	
12	
7	
6	
4	
6	
9	
5	
9	
4	
6	
4	
7	
5	
5	
7	
6	
6	
2	
5	
7	
3	
4	
3	
10	
8	
9	
7	
6	
10	
5	
6	
3	
2	
12	
3	
3	
6	
6	
3	
7	
7	
9	
4	
7	
3	
5	
4	
8	
6	
3	
5	
4	
6	
5	
7	
4	
6	
6	
6	
6	
7	
9	
4	
7	
5	
9	
7	
5	
3	
2	
7	
9	
6	
4	
5	
6	
9	
5	
9	
3	
5	
7	
6	
9	
8	
14	
11	
4	
6	
6	
6	
10	
6	
9	
12	
7	
8	
9	
4	
10	
7	
6	
6	
7	
6	
4	
10	
9	
9	
5	
5	
4	
6	
6	
2	
7	
8	
8	
4	
7	
4	
3	
5	
9	
5	
4	
13	
4	
4	
4	
7	
6	
4	
3	
5	
5	
3	
5	
8	
8	
5	
2	
2	
3	
9	
3	
7	
10	
3	
9	
7	
7	
6	
6	
7	
5	
7	
4	
9	
4	
11	
8	
4	
7	
4	
5	
4	
6	
6	
4	
5	
5	
4	
6	
5	
4	
10	
8	
5	
8	
7	
9	
7	
5	
6	
9	
6	
5	
5	
4	
6	
7	
5	
4	
7	
2	
6	
7	
5	
5	
3	
8	
7	
6	
6	
2	
6	
4	
9	
4	
4	
7	
3	
6	
8	
2	
7	
6	
4	
7	
5	
4	
4	
8	
6	
6	
1	
5	
6	
6	
2	
10	
4	
5	
6	
5	
3	
2	
5	
5	
6	
5	
11	
6	
5	
9	
3	
10	
2	
8	
6	
6	
5	
8	
8	
6	
8	
7	
3	
8	
7	
7	
6	
8	
13	
3	
10	
4	
9	
5	
6	
8	
7	
6	
10	
9	
8	
9	
3	
2	
5	
3	
4	
6	
3	
6	
6	
3	
5	
10	
6	
8	
2	
4	
6	
7	
2	
8	
10	
3	
7	
3	
4	
4	
4	
10	
8	
4	
11	
2	
4	
6	
9	
3	
8	
7	
7	
7	
8	
2	
5	
3	
4	
1	
9	
4	
4	
7	
2	
5	
6	
9	
7	
8	
6	
10	
2	
5	
5	
4	
5	
6	
2	
11	
5	
4	
10	
5	
8	
5	
10	
3	
2	
3	
6	
11	
12	
4	
5	
5	
7	
2	
6	
3	
7	
3	
5	
6	
2	
6	
6	
12	
6	
3	
4	
3	
5	
6	
7	
8	
6	
6	
6	
5	
4	
8	
4	
2	
3	
4	
8	
4	
8	
7	
6	
4	
3	
2	
4	
2	
4	
4	
9	
4	
8	
7	
5	
7	
9	
2	
4	
4	
7	
7	
5	
2	
2	
5	
4	
4	
3	
6	
5	
13	
6	
2	
9	
4	
7	
5	
2	
7	
9	
7	
7	
5	
3	
8	
6	
7	
6	
5	
5	
5	
8	
4	
3	
13	
7	
8	
6	
6	
4	
3	
5	
8	
5	
4	
4	
2	
2	
4	
5	
5	
5	
4	
6	
4	
7	
7	
4	
3	
9	
9	
4	
2	
5	
3	
7	
7	
6	
5	
1	
6	
5	
11	
6	
4	
8	
4	
2	
4	
9	
7	
3	
6	
4	
4	
4	
4	
3	
4	
11	
6	
5	
8	
4	
5	
6	
5	
3	
4	
4	
9	
6	
8	
4	
3	
2	
9	
4	
6	
5	
3	
6	
5	
6	
8	
7	
6	
2	
2	
3	
5	
2	
7	
5	
3	
4	
6	
7	
7	
4	
10	
3	
7	
4	
5	
5	
3	
4	
4	
2	
5	
5	
1	
3	
5	
5	
4	
3	
6	
3	
1	
4	
3	
6	
4	
5	
5	
5	
3	
4	
8	
4	
4	
6	
3	
8	
6	
6	
6	
4	
6	
8	
2	
6	
5	
2	
1	
10	
5	
3	
8	
4	
3	
5	
9	
4	
5	
11	
2	
6	
7	
8	
6	
6	
7	
4	
5	
3	
7	
4	
8	
11	
4	
9	
1	
6	
1	
4	
11	
6	
5	
7	
1	
6	
6	
3	
3	
7	
6	
2	
3	
4	
2	
2	
4	
8	
5	
5	
10	
2	
5	
10	
4	
4	
2	
5	
3	
7	
6	
3	
6	
8	
8	
3	
4	
3	
4	
6	
6	
6	
6	
4	
3	
7	
5	
2	
1	
5	
8	
2	
7	
11	
2	
6	
6	
5	
7	
4	
2	
11	
3	
4	
4	
2	
4	
5	
3	
4	
7	
12	
5	
0	
7	
5	
6	
6	
5	
7	
7	
5	
6	
7	
5	
10	
4	
8	
5	
6	
5	
4	
3	
2	
5	
3	
6	
5	
4	
5	
6	
4	
2	
5	
6	
4	
1	
2	
13	
7	
3	
5	
2	
4	
3	
5	
8	
2	
6	
5	
8	
2	
4	
6	
8	
2	
9	
3	
3	
6	
6	
3	
4	
5	
4	
9	
5	
5	
6	
4	
5	
8	
2	
5	
6	
2	
4	
5	
5	
6	
5	
6	
5	
5	
4	
5	
4	
8	
6	
6	
7	
5	
5	
2	
4	
7	
8	
4	
4	
3	
3	
6	
6	
2	
10	
7	
5	
5	
12	
4	
4	
1	
3	
7	
5	
2	
6	
3	
6	
3	
6	
1	
6	
2	
4	
5	
3	
4	
3	
0	
7	
4	
6	
3	
4	
1	
7	
6	
2	
3	
6	
4	
4	
6	
3	
0	
3	
3	
2	
2	
5	
5	
4	
4	
7	
4	
4	
2	
6	
2	
4	
3	
5	
3	
2	
1	
2	
6	
6	
3	
4	
4	
7	
3	
6	
5	
11	
10	
6	
4	
2	
6	
1	
6	
7	
4	
3	
4	
4	
6	
3	
1	
6	
5	
3	
2	
3	
6	
3	
4	
5	
5	
6	
5	
2	
4	
5	
5	
4	
1	
3	
3	
7	
3	
4	
3	
3	
6	
1	
6	
6	
5	
4	
2	
4	
4	
6	
8	
4	
1	
2	
1	
5	
6	
5	
9	
9	
4	
6	
6	
5	
7	
2	
3	
4	
4	
10	
5	
4	
3	
5	
5	
5	
7	
4	
2	
6	
3	
4	
1	
2	
4	
4	
5	
3	
6	
6	
3	
5	
3	
5	
5	
5	
6	
2	
8	
6	
7	
3	
10	
6	
1	
7	
4	
7	
4	
3	
7	
8	
4	
4	
6	
4	
4	
3	
4	
7	
4	
3	
9	
2	
4	
8	
4	
4	
2	
4	
4	
2	
2	
5	
5	
7	
7	
6	
11	
7	
3	
5	
5	
7	
5	
2	
8	
2	
5	
4	
7	
3	
2	
3	
5	
7	
6	
2	
1	
7	
3	
4	
1	
9	
3	
3	
6	
2	
5	
6	
6	
4	
2	
4	
4	
4	
5	
5	
2	
4	
7	
9	
3	
3	
6	
2	
7	
7	
3	
4	
4	
3	
3	
4	
2	
9	
7	
8	
6	
3	
5	
4	
1	
3	
5	
8	
2	
2	
7	
2	
3	
3	
2	
3	
5	
1	
3	
6	
3	
6	
7	
6	
1	
10	
5	
3	
9	
4	
1	
5	
1	
6	
2	
2	
8	
4	
8	
1	
4	
3	
4	
8	
5	
3	
3	
7	
6	
3	
5	
5	
5	
3	
6	
4	
3	
5	
5	
5	
6	
1	
3	
9	
5	
1	
4	
3	
6	
3	
3	
4	
3	
3	
6	
8	
6	
1	
4	
6	
4	
10	
8	
5	
2	
2	
7	
7	
3	
3	
5	
3	
6	
4	
2	
5	
6	
2	
4	
4	
3	
3	
2	
4	
7	
2	
5	
4	
3	
3	
3	
3	
5	
7	
2	
3	
7	
3	
6	
4	
8	
4	
3	
6	
2	
5	
3	
7	
1	
5	
3	
4	
4	
5	
3	
4	
2	
5	
6	
2	
3	
3	
4	
5	
6	
1	
2	
7	
1	
9	
4	
4	
2	
6	
5	
4	
9	
6	
3	
6	
6	
6	
2	
4	
1	
2	
6	
7	
7	
3	
2	
5	
1	
5	
3	
1	
5	
5	
0	
4	
0	
6	
4	
9	
3	
1	
5	
10	
4	
4	
6	
7	
2	
9	
3	
7	
6	
3	
5	
6	
5	
3	
2	
4	
4	
6	
3	
4	
5	
2	
3	
4	
4	
1	
4	
4	
4	
8	
6	
3	
3	
4	
5	
4	
9	
4	
4	
2	
5	
8	
1	
6	
2	
7	
4	
5	
6	
3	
1	
7	
5	
4	
5	
6	
7	
6	
4	
5	
5	
4	
2	
6	
5	
5	
2	
3	
2	
8	
7	
4	
6	
3	
2	
3	
4	
4	
4	
3	
2	
6	
2	
4	
5	
2	
4	
3	
6	
5	
1	
7	
2	
4	
8	
5	
4	
5	
4	
6	
1	
4	
4	
9	
7	
11	
5	
6	
5	
2	
5	
4	
6	
1	
3	
6	
4	
6	
1	
1	
1	
9	
5	
3	
4	
4	
10	
6	
5	
4	
3	
6	
3	
7	
2	
5	
8	
6	
1	
6	
4	
2	
4	
3	
3	
4	
1	
4	
5	
6	
9	
7	
6	
8	
4	
6	
3	
8	
2	
9	
2	
8	
7	
5	
4	
5	
3	
8	
4	
7	
6	
6	
6	
8	
5	
8	
5	
1	
5	
8	
2	
2	
4	
2	
5	
1	
0	
6	
1	
6	
7	
3	
6	
7	
3	
8	
2	
7	
2	
2	
2	
6	
5	
3	
3	
3	
5	
4	
9	
2	
5	
2	
6	
6	
1	
2	
4	
8	
6	
2	
1	
4	
3	
7	
3	
5	
8	
1	
6	
4	
1	
2	
3	
3	
4	
4	
1	
5	
0	
3	
4	
5	
3	
5	
6	
3	
8	
4	
6	
2	
1	
4	
2	
5	
7	
2	
2	
4	
3	
5	
7	
3	
2	
7	
5	
7	
1	
2	
2	
4	
6	
2	
5	
10	
1	
4	
3	
4	
4	
1	
5	
1	
6	
6	
3	
5	
4	
2	
10	
3	
4	
6	
4	
4	
4	
4	
3	
1	
8	
4	
6	
2	
5	
5	
6	
4	
5	
6	
7	
3	
5	
3	
4	
2	
7	
4	
4	
6	
3	
2	
5	
3	
4	
5	
5	
4	
5	
5	
2	
3	
3	
5	
3	
2	
2	
3	
1	
4	
0	
2	
3	
5	
4	
2	
3	
4	
3	
3	
0	
6	
10	
7	
4	
8	
5	
5	
7	
3	
7	
8	
6	
5	
2	
4	
5	
6	
4	
2	
6	
2	
3	
6	
2	
4	
8	
4	
3	
1	
4	
3	
3	
8	
2	
4	
4	
2	
6	
6	
2	
6	
4	
1	
8	
4	
3	
11	
5	
8	
3	
4	
3	
3	
6	
6	
4	
5	
2	
3	
7	
3	
1	
2	
4	
7	
2	
3	
1	
5	
4	
3	
8	
2	
5	
4	
4	
5	
3	
2	
6	
3	
5	
4	
4	
4	
3	
0	
1	
2	
2	
3	
6	
1	
2	
5	
4	
1	
6	
5	
7	
4	
3	
5	
6	
4	
7	
7	
10	
3	
2	
4	
4	
2	
4	
5	
6	
1	
4	
4	
2	
4	
4	
4	
3	
6	
4	
3	
2	
3	
6	
6	
4	
4	
6	
5	
6	
2	
1	
4	
5	
3	
1	
9	
6	
3	
1	
3	
2	
9	
2	
6	
4	
7	
4	
9	
7	
3	
5	
5	
3	
3	
3	
3	
5	
6	
4	
4	
2	
5	
2	
1	
5	
5	
7	
3	
2	
4	
1	
6	
2	
3	
5	
4	
8	
4	
4	
1	
1	
5	
7	
7	
4	
5	
2	
4	
1	
7	
2	
3	
4	
4	
3	
3	
3	
3	
4	
4	
0	
7	
7	
3	
3	
2	
3	
3	
4	
4	
1	
5	
4	
6	
5	
4	
6	
3	
2	
3	
4	
7	
2	
5	
5	
7	
7	
3	
4	
5	
8	
5	
3	
7	
6	
5	
4	
7	
2	
5	
8	
4	
0	
2	
7	
6	
2	
1	
1	
4	
6	
3	
2	
1	
5	
7	
5	
4	
4	
9	
2	
7	
3	
3	
7	
5	
4	
1	
2	
9	
1	
2	
1	
7	
4	
3	
2	
6	
5	
3	
2	
8	
0	
4	
5	
3	
2	
5	
3	
5	
2	
4	
3	
2	
7	
3	
2	
4	
2	
7	
3	
1	
3	
3	
6	
2	
2	
3	
2	
4	
2	
2	
5	
5	
2	
1	
5	
1	
6	
5	
1	
4	
4	
4	
6	
1	
5	
2	
5	
5	
4	
3	
10	
1	
7	
4	
1	
3	
1	
6	
4	
4	
8	
7	
3	
4	
4	
5	
4	
6	
5	
4	
3	
7	
1	
3	
4	
7	
2	
5	
3	
4	
3	
4	
6	
5	
4	
3	
0	
2	
3	
7	
4	
2	
3	
4	
2	
3	
2	
3	
5	
4	
3	
5	
4	
2	
4	
3	
3	
0	
3	
2	
4	
4	
2	
5	
1	
4	
3	
4	
5	
5	
7	
3	
3	
1	
3	
2	
1	
1	
2	
1	
7	
2	
10	
5	
6	
6	
6	
5	
4	
6	
2	
2	
3	
2	
9	
2	
2	
4	
8	
7	
1	
5	
0	
3	
2	
7	
1	
2	
7	
6	
4	
4	
1	
3	
4	
2	
2	
5	
2	
6	
6	
1	
2	
4	
0	
1	
5	
8	
