#PicoHarp 300  Histogram Data			03/27/2023 12:26:31 PM
#channels per curve
15625
#display curve no.
0	
#memory block no.
0	
#ns/channel
0.1280	
#counts
2	
4	
3	
0	
1	
2	
1	
3	
2	
2	
1	
6	
2	
1	
1	
2	
0	
2	
1	
3	
1	
5	
2	
0	
3	
2	
0	
3	
3	
1	
2	
1	
4	
2	
0	
2	
3	
3	
1	
1	
1	
3	
1	
0	
3	
1	
3	
2	
1	
2	
5	
0	
3	
3	
1	
0	
4	
2	
2	
1	
3	
2	
3	
4	
0	
2	
6	
8	
19	
29	
62	
127	
190	
259	
316	
408	
420	
458	
513	
448	
488	
442	
420	
455	
424	
447	
423	
439	
465	
459	
448	
452	
385	
456	
415	
424	
446	
390	
383	
400	
410	
424	
379	
396	
392	
402	
358	
386	
410	
351	
403	
410	
370	
384	
383	
338	
389	
366	
350	
364	
370	
401	
370	
354	
366	
343	
330	
318	
366	
378	
349	
368	
312	
358	
356	
322	
353	
342	
339	
349	
344	
329	
354	
354	
305	
344	
332	
336	
306	
326	
318	
302	
306	
298	
350	
324	
305	
313	
301	
275	
331	
330	
300	
332	
309	
317	
292	
313	
298	
299	
306	
326	
276	
281	
307	
313	
320	
287	
294	
317	
283	
291	
299	
318	
288	
333	
275	
287	
296	
312	
267	
291	
288	
273	
282	
263	
270	
292	
293	
300	
268	
272	
281	
292	
266	
269	
268	
289	
284	
281	
293	
243	
274	
259	
240	
252	
280	
278	
243	
277	
271	
278	
262	
304	
247	
252	
288	
249	
271	
241	
271	
266	
241	
244	
262	
272	
240	
239	
226	
250	
264	
237	
248	
257	
263	
225	
270	
261	
239	
284	
217	
252	
227	
254	
243	
259	
243	
233	
230	
265	
250	
280	
238	
236	
229	
237	
238	
244	
251	
232	
244	
229	
208	
251	
250	
243	
235	
230	
235	
232	
230	
202	
203	
245	
246	
230	
225	
210	
222	
233	
206	
227	
225	
234	
215	
227	
217	
228	
205	
219	
196	
229	
238	
214	
220	
198	
188	
177	
225	
233	
199	
232	
225	
180	
204	
227	
220	
226	
217	
219	
214	
233	
221	
230	
197	
230	
214	
199	
208	
197	
204	
211	
219	
219	
190	
212	
203	
184	
214	
198	
194	
191	
213	
218	
202	
197	
199	
227	
206	
188	
182	
206	
209	
212	
185	
205	
186	
198	
193	
173	
205	
184	
176	
177	
177	
186	
172	
201	
196	
203	
185	
194	
195	
202	
174	
194	
185	
194	
196	
176	
189	
169	
182	
198	
193	
182	
198	
190	
191	
186	
182	
180	
189	
197	
166	
183	
196	
175	
205	
187	
173	
180	
178	
202	
186	
175	
166	
161	
172	
192	
170	
181	
178	
172	
177	
168	
184	
153	
166	
177	
191	
179	
177	
199	
160	
176	
177	
173	
155	
147	
188	
170	
179	
175	
170	
179	
187	
149	
182	
164	
159	
176	
183	
149	
163	
155	
146	
185	
189	
197	
169	
181	
178	
158	
152	
158	
160	
154	
149	
159	
155	
167	
190	
182	
159	
173	
184	
145	
163	
157	
161	
140	
169	
155	
144	
160	
159	
166	
151	
147	
179	
168	
158	
187	
156	
151	
144	
145	
146	
177	
167	
172	
151	
154	
173	
146	
168	
153	
152	
152	
152	
133	
145	
162	
158	
143	
139	
166	
156	
168	
144	
155	
153	
184	
159	
137	
139	
150	
158	
139	
152	
151	
161	
153	
150	
165	
148	
126	
135	
140	
178	
158	
149	
157	
155	
143	
155	
166	
139	
151	
133	
137	
140	
156	
160	
136	
164	
144	
141	
150	
154	
127	
141	
139	
143	
153	
132	
136	
140	
134	
154	
137	
143	
144	
127	
144	
144	
128	
154	
136	
146	
152	
125	
143	
130	
142	
141	
134	
137	
123	
143	
126	
130	
130	
136	
123	
134	
136	
136	
144	
141	
142	
133	
136	
133	
133	
112	
136	
129	
144	
120	
129	
166	
127	
133	
132	
123	
151	
115	
117	
127	
116	
134	
121	
138	
112	
137	
130	
111	
109	
134	
115	
119	
121	
128	
139	
122	
125	
127	
117	
125	
127	
127	
124	
121	
138	
130	
125	
134	
125	
118	
128	
136	
143	
126	
127	
113	
116	
141	
124	
132	
139	
130	
116	
134	
113	
139	
121	
132	
122	
134	
109	
145	
119	
118	
129	
143	
134	
128	
120	
119	
123	
129	
120	
93	
116	
109	
115	
117	
138	
124	
123	
137	
131	
133	
110	
124	
117	
119	
120	
120	
108	
110	
110	
115	
120	
117	
113	
124	
106	
111	
115	
106	
110	
111	
117	
98	
103	
98	
107	
114	
117	
111	
125	
111	
103	
100	
112	
116	
117	
101	
110	
112	
102	
109	
117	
133	
111	
118	
128	
117	
110	
119	
104	
94	
112	
115	
106	
124	
108	
104	
90	
97	
101	
103	
108	
100	
99	
98	
125	
116	
107	
104	
105	
92	
119	
101	
129	
101	
99	
110	
114	
109	
92	
102	
102	
115	
133	
109	
119	
117	
113	
106	
107	
103	
101	
112	
105	
101	
92	
102	
115	
91	
94	
112	
111	
94	
101	
104	
107	
105	
100	
116	
106	
133	
104	
113	
115	
101	
114	
106	
110	
130	
101	
110	
76	
112	
101	
122	
90	
112	
99	
93	
88	
91	
117	
99	
91	
115	
96	
114	
107	
105	
75	
105	
101	
90	
88	
102	
84	
92	
95	
91	
115	
99	
106	
97	
101	
94	
100	
96	
96	
90	
104	
101	
99	
97	
76	
86	
115	
80	
89	
99	
97	
88	
97	
99	
98	
108	
90	
100	
80	
94	
99	
98	
91	
87	
104	
84	
94	
91	
81	
73	
96	
96	
81	
100	
91	
110	
97	
78	
96	
87	
104	
68	
72	
95	
89	
98	
101	
97	
89	
88	
98	
100	
100	
106	
90	
103	
105	
107	
88	
103	
93	
105	
101	
83	
78	
94	
86	
103	
98	
87	
91	
78	
98	
89	
100	
100	
87	
103	
88	
81	
98	
94	
75	
91	
98	
81	
89	
98	
87	
91	
90	
93	
80	
87	
85	
113	
92	
97	
92	
76	
76	
90	
102	
97	
89	
90	
85	
86	
95	
82	
76	
85	
78	
103	
79	
91	
81	
79	
86	
78	
79	
93	
89	
94	
91	
90	
95	
91	
90	
89	
94	
89	
70	
89	
93	
87	
96	
88	
83	
87	
94	
95	
81	
85	
81	
86	
76	
80	
98	
76	
74	
83	
71	
75	
75	
68	
86	
87	
93	
81	
86	
76	
94	
78	
81	
83	
90	
99	
88	
76	
84	
82	
85	
86	
89	
90	
69	
78	
91	
84	
99	
91	
88	
81	
64	
79	
73	
80	
80	
80	
69	
75	
79	
74	
75	
80	
78	
75	
90	
81	
85	
80	
82	
75	
86	
76	
79	
93	
77	
80	
73	
89	
87	
96	
79	
89	
73	
82	
86	
79	
104	
88	
78	
70	
86	
77	
69	
56	
67	
72	
69	
60	
83	
84	
84	
92	
75	
72	
78	
74	
82	
73	
72	
82	
82	
82	
82	
84	
75	
69	
83	
75	
82	
87	
82	
68	
95	
90	
76	
81	
85	
72	
76	
82	
71	
76	
85	
84	
81	
77	
80	
87	
73	
78	
73	
63	
67	
88	
91	
72	
68	
78	
68	
73	
88	
88	
85	
74	
84	
70	
67	
75	
66	
78	
67	
75	
55	
74	
74	
80	
63	
70	
77	
74	
66	
85	
63	
84	
71	
79	
78	
65	
88	
63	
89	
72	
69	
60	
75	
87	
88	
76	
73	
76	
81	
51	
72	
87	
69	
76	
85	
65	
86	
72	
66	
73	
81	
71	
80	
64	
81	
69	
70	
74	
66	
81	
67	
59	
67	
68	
86	
66	
67	
83	
73	
80	
73	
76	
63	
60	
75	
65	
64	
82	
69	
74	
75	
76	
76	
74	
69	
71	
61	
61	
71	
66	
65	
65	
64	
69	
64	
67	
68	
69	
77	
73	
80	
64	
59	
87	
62	
72	
68	
67	
68	
64	
71	
68	
65	
64	
75	
78	
73	
77	
69	
75	
66	
72	
68	
66	
81	
78	
71	
68	
71	
87	
83	
62	
67	
77	
71	
58	
60	
55	
73	
84	
56	
72	
63	
65	
73	
77	
61	
60	
69	
56	
74	
61	
52	
73	
54	
57	
66	
59	
76	
64	
61	
61	
80	
67	
69	
82	
75	
68	
65	
79	
53	
66	
67	
71	
60	
78	
78	
61	
70	
64	
75	
72	
57	
61	
72	
74	
69	
60	
72	
62	
63	
56	
56	
52	
55	
50	
58	
73	
65	
72	
77	
86	
74	
62	
65	
65	
74	
61	
82	
71	
70	
58	
62	
50	
74	
72	
69	
64	
69	
59	
70	
62	
79	
50	
74	
61	
65	
59	
55	
63	
52	
67	
78	
54	
70	
54	
58	
66	
66	
63	
51	
68	
54	
61	
63	
75	
56	
59	
60	
64	
66	
54	
62	
65	
58	
40	
58	
65	
55	
42	
65	
62	
64	
69	
55	
64	
60	
69	
65	
65	
56	
66	
52	
57	
45	
46	
61	
54	
66	
65	
65	
58	
71	
59	
72	
75	
56	
59	
48	
53	
71	
70	
47	
50	
64	
62	
62	
58	
56	
65	
57	
57	
79	
61	
47	
58	
61	
54	
64	
55	
74	
53	
52	
60	
62	
60	
68	
49	
56	
62	
63	
58	
71	
59	
70	
58	
69	
55	
53	
53	
67	
54	
51	
64	
46	
62	
67	
65	
63	
58	
71	
58	
52	
71	
49	
55	
76	
49	
43	
56	
53	
50	
64	
51	
64	
69	
55	
52	
50	
59	
57	
41	
55	
68	
60	
58	
69	
45	
52	
60	
57	
63	
58	
63	
57	
65	
59	
58	
67	
57	
44	
52	
51	
65	
46	
59	
62	
54	
46	
54	
60	
61	
52	
54	
65	
61	
51	
58	
63	
65	
62	
60	
42	
68	
40	
54	
64	
58	
56	
63	
64	
87	
65	
45	
56	
71	
55	
56	
67	
52	
58	
39	
46	
53	
65	
50	
51	
52	
61	
51	
63	
60	
64	
59	
61	
47	
53	
55	
46	
53	
58	
53	
46	
54	
46	
65	
49	
49	
65	
54	
55	
63	
51	
61	
56	
53	
43	
56	
52	
53	
45	
52	
64	
63	
60	
56	
45	
38	
47	
55	
57	
71	
46	
55	
52	
60	
50	
50	
49	
51	
56	
48	
57	
64	
48	
43	
49	
46	
69	
39	
50	
47	
46	
40	
54	
52	
46	
50	
50	
41	
57	
44	
39	
53	
59	
42	
42	
48	
62	
48	
57	
55	
64	
44	
55	
41	
61	
57	
61	
52	
49	
54	
52	
62	
58	
49	
46	
54	
51	
51	
50	
55	
57	
42	
51	
59	
75	
42	
43	
41	
43	
45	
46	
55	
37	
51	
43	
48	
69	
47	
49	
56	
55	
49	
58	
40	
45	
53	
57	
50	
50	
44	
47	
55	
47	
58	
45	
55	
59	
55	
45	
55	
49	
56	
50	
52	
42	
54	
37	
62	
48	
50	
47	
46	
42	
48	
39	
46	
45	
41	
49	
46	
41	
41	
47	
52	
49	
32	
56	
51	
33	
40	
57	
51	
52	
66	
56	
53	
58	
51	
41	
44	
47	
51	
38	
52	
54	
40	
42	
43	
43	
51	
56	
61	
42	
52	
51	
51	
57	
37	
48	
52	
41	
42	
45	
38	
42	
40	
51	
50	
34	
52	
48	
47	
40	
49	
45	
54	
46	
40	
48	
54	
42	
45	
42	
48	
51	
40	
49	
47	
35	
46	
55	
54	
53	
46	
40	
45	
49	
40	
40	
40	
61	
42	
41	
39	
40	
44	
35	
42	
48	
45	
39	
49	
33	
42	
51	
56	
46	
43	
55	
50	
47	
38	
59	
56	
40	
47	
38	
32	
47	
47	
46	
51	
52	
37	
60	
47	
51	
42	
56	
38	
44	
42	
48	
39	
43	
34	
48	
38	
52	
39	
46	
30	
63	
50	
46	
38	
55	
34	
32	
51	
53	
44	
37	
44	
40	
32	
37	
41	
43	
36	
50	
48	
50	
47	
50	
39	
38	
41	
48	
48	
31	
28	
38	
43	
35	
36	
45	
47	
39	
35	
46	
51	
45	
49	
44	
52	
34	
29	
41	
40	
49	
49	
30	
36	
35	
46	
41	
43	
56	
57	
45	
41	
54	
59	
39	
40	
38	
38	
43	
46	
61	
37	
35	
46	
40	
43	
41	
42	
31	
36	
41	
45	
40	
40	
39	
41	
56	
23	
38	
49	
51	
28	
46	
43	
27	
38	
42	
44	
52	
41	
35	
46	
44	
41	
45	
42	
38	
48	
27	
43	
37	
34	
41	
43	
40	
40	
41	
39	
49	
46	
43	
40	
41	
44	
43	
44	
44	
46	
49	
48	
37	
35	
49	
40	
34	
40	
59	
31	
41	
40	
55	
38	
46	
50	
36	
32	
44	
41	
45	
30	
28	
36	
42	
42	
47	
47	
30	
42	
48	
47	
47	
35	
46	
40	
38	
26	
29	
44	
48	
35	
38	
36	
39	
40	
31	
37	
40	
33	
35	
41	
40	
41	
33	
36	
38	
36	
39	
37	
43	
39	
36	
51	
46	
41	
27	
41	
40	
38	
39	
48	
40	
51	
36	
40	
31	
32	
42	
38	
41	
51	
24	
32	
36	
43	
41	
44	
48	
40	
42	
37	
42	
29	
41	
33	
30	
39	
40	
44	
39	
38	
41	
28	
36	
29	
32	
38	
38	
41	
36	
46	
38	
45	
46	
37	
33	
55	
52	
45	
40	
46	
42	
30	
31	
33	
38	
46	
37	
51	
33	
36	
39	
44	
25	
35	
38	
38	
35	
27	
32	
40	
39	
35	
37	
41	
35	
50	
35	
35	
28	
37	
35	
34	
33	
43	
42	
41	
43	
41	
38	
37	
41	
34	
32	
31	
21	
32	
44	
33	
50	
37	
37	
37	
44	
44	
36	
28	
43	
40	
39	
36	
49	
48	
38	
34	
22	
53	
32	
49	
32	
35	
32	
36	
32	
39	
33	
45	
41	
34	
33	
45	
37	
41	
41	
23	
46	
39	
37	
32	
37	
32	
28	
35	
51	
37	
45	
28	
41	
28	
50	
44	
29	
32	
43	
42	
39	
42	
39	
41	
37	
52	
36	
30	
43	
37	
44	
42	
43	
44	
36	
44	
48	
37	
36	
31	
36	
33	
41	
41	
44	
32	
30	
47	
44	
48	
30	
38	
21	
46	
32	
38	
33	
37	
36	
33	
34	
38	
18	
35	
40	
34	
41	
48	
55	
23	
37	
44	
52	
36	
32	
31	
28	
39	
45	
25	
41	
29	
33	
30	
37	
46	
38	
49	
33	
28	
37	
34	
36	
32	
29	
59	
37	
31	
37	
47	
39	
39	
28	
46	
39	
41	
25	
53	
43	
34	
33	
40	
41	
50	
44	
21	
41	
36	
34	
42	
37	
32	
34	
26	
36	
24	
35	
30	
32	
37	
39	
36	
38	
33	
37	
20	
35	
32	
35	
30	
31	
31	
27	
29	
29	
35	
38	
33	
39	
21	
31	
31	
29	
33	
37	
24	
42	
37	
29	
36	
42	
26	
28	
38	
26	
39	
28	
29	
38	
24	
29	
27	
24	
26	
40	
33	
40	
37	
41	
30	
35	
34	
33	
39	
39	
33	
41	
36	
36	
33	
33	
49	
32	
30	
43	
36	
31	
36	
35	
43	
30	
33	
41	
31	
34	
31	
31	
41	
31	
35	
37	
40	
36	
37	
27	
27	
32	
39	
30	
29	
26	
35	
43	
38	
36	
27	
39	
27	
29	
30	
35	
39	
36	
31	
36	
20	
35	
32	
39	
30	
31	
43	
25	
32	
35	
36	
34	
33	
37	
26	
36	
35	
23	
32	
35	
27	
35	
36	
31	
27	
30	
31	
47	
39	
28	
29	
25	
29	
30	
31	
40	
40	
36	
33	
33	
39	
29	
34	
30	
25	
25	
29	
32	
45	
37	
29	
33	
23	
26	
35	
29	
25	
33	
32	
24	
44	
24	
28	
25	
47	
32	
27	
40	
33	
25	
33	
31	
33	
27	
31	
25	
42	
33	
24	
30	
36	
34	
35	
31	
28	
24	
37	
24	
30	
31	
30	
34	
27	
33	
31	
22	
27	
20	
33	
25	
36	
34	
32	
25	
31	
25	
36	
21	
24	
41	
28	
31	
31	
35	
32	
28	
32	
22	
30	
35	
32	
40	
28	
30	
15	
36	
32	
35	
27	
29	
41	
36	
28	
22	
32	
26	
25	
28	
24	
32	
27	
29	
40	
19	
24	
36	
24	
30	
32	
32	
30	
30	
33	
28	
32	
36	
21	
28	
35	
30	
26	
29	
35	
20	
33	
32	
27	
18	
21	
26	
29	
25	
34	
26	
35	
39	
30	
23	
21	
26	
30	
29	
36	
42	
27	
35	
27	
23	
25	
32	
34	
35	
34	
32	
28	
21	
33	
29	
35	
30	
40	
23	
27	
33	
27	
28	
28	
20	
40	
27	
31	
22	
33	
32	
27	
33	
32	
25	
19	
33	
20	
32	
19	
26	
32	
30	
31	
25	
30	
36	
24	
29	
27	
34	
24	
26	
31	
35	
32	
29	
28	
37	
23	
33	
19	
28	
31	
29	
29	
23	
36	
26	
22	
25	
32	
35	
33	
27	
26	
23	
18	
36	
22	
37	
20	
33	
34	
35	
29	
29	
20	
23	
31	
27	
39	
34	
26	
36	
34	
38	
30	
40	
29	
23	
25	
24	
31	
28	
29	
23	
36	
27	
20	
24	
34	
27	
21	
31	
25	
26	
36	
26	
34	
34	
40	
34	
35	
24	
21	
25	
25	
40	
23	
24	
23	
26	
30	
26	
33	
28	
19	
33	
27	
20	
43	
28	
30	
33	
29	
22	
28	
27	
31	
36	
30	
27	
29	
30	
28	
27	
27	
30	
37	
30	
43	
23	
31	
33	
33	
30	
35	
25	
27	
25	
35	
43	
25	
32	
33	
22	
27	
25	
34	
31	
29	
33	
26	
23	
26	
29	
18	
25	
20	
19	
24	
27	
24	
21	
21	
25	
33	
30	
29	
25	
20	
25	
32	
28	
27	
23	
32	
24	
33	
23	
27	
30	
21	
31	
28	
21	
35	
22	
28	
28	
31	
25	
39	
30	
28	
33	
37	
25	
25	
23	
31	
32	
24	
27	
24	
30	
27	
21	
24	
21	
26	
35	
30	
25	
30	
41	
23	
24	
32	
23	
27	
24	
25	
21	
33	
37	
24	
38	
22	
27	
16	
23	
28	
20	
28	
22	
24	
22	
25	
24	
29	
28	
22	
22	
28	
35	
29	
24	
13	
33	
26	
34	
25	
31	
26	
17	
32	
32	
29	
36	
22	
18	
25	
43	
29	
20	
28	
25	
21	
35	
28	
30	
19	
29	
28	
25	
17	
18	
28	
23	
26	
33	
25	
21	
30	
26	
30	
23	
21	
21	
20	
23	
22	
21	
18	
28	
27	
25	
20	
27	
27	
27	
32	
19	
25	
20	
19	
23	
26	
24	
22	
28	
38	
14	
28	
26	
16	
27	
30	
27	
30	
23	
30	
40	
29	
24	
29	
22	
28	
22	
24	
33	
28	
24	
27	
25	
28	
18	
21	
24	
28	
25	
28	
26	
19	
30	
29	
21	
32	
17	
23	
24	
29	
24	
18	
15	
22	
26	
36	
19	
27	
24	
20	
22	
33	
18	
25	
31	
25	
24	
29	
19	
27	
18	
22	
24	
26	
30	
22	
24	
32	
18	
38	
24	
23	
24	
23	
23	
20	
32	
24	
20	
19	
24	
26	
27	
29	
35	
29	
28	
24	
22	
27	
22	
32	
24	
28	
24	
29	
25	
33	
23	
22	
23	
16	
15	
31	
21	
29	
27	
18	
25	
28	
23	
20	
24	
29	
23	
25	
29	
27	
32	
29	
34	
29	
15	
23	
29	
31	
28	
23	
24	
37	
31	
21	
23	
21	
26	
35	
22	
26	
30	
25	
21	
29	
19	
31	
25	
29	
28	
25	
29	
23	
24	
26	
18	
32	
22	
23	
25	
23	
29	
18	
19	
24	
21	
24	
23	
23	
23	
26	
30	
18	
25	
26	
21	
21	
24	
27	
10	
21	
22	
20	
24	
25	
33	
23	
33	
25	
24	
20	
21	
27	
31	
23	
18	
17	
25	
22	
20	
21	
25	
28	
27	
23	
19	
23	
28	
25	
18	
22	
33	
20	
18	
18	
18	
27	
29	
25	
31	
31	
25	
20	
15	
30	
16	
16	
18	
30	
22	
22	
21	
28	
31	
27	
30	
24	
26	
19	
18	
21	
23	
18	
18	
21	
23	
23	
21	
18	
21	
17	
23	
29	
20	
30	
22	
21	
24	
33	
21	
28	
19	
21	
15	
29	
20	
26	
22	
17	
36	
24	
32	
28	
28	
28	
26	
28	
30	
22	
26	
20	
24	
25	
20	
23	
26	
33	
24	
26	
17	
28	
12	
28	
26	
18	
16	
18	
23	
21	
27	
19	
25	
19	
35	
24	
20	
20	
22	
20	
21	
20	
21	
18	
23	
17	
22	
17	
19	
19	
20	
24	
15	
22	
20	
17	
22	
24	
19	
22	
17	
27	
24	
27	
17	
13	
25	
22	
23	
22	
30	
28	
25	
15	
23	
22	
28	
20	
22	
29	
22	
24	
24	
21	
23	
17	
24	
35	
23	
24	
17	
22	
22	
21	
19	
18	
28	
19	
27	
14	
25	
22	
24	
15	
18	
20	
28	
15	
15	
20	
24	
29	
11	
23	
15	
18	
18	
26	
23	
16	
26	
29	
23	
18	
19	
15	
26	
18	
28	
25	
18	
27	
26	
21	
22	
17	
21	
26	
25	
20	
30	
22	
23	
18	
26	
21	
17	
29	
13	
21	
22	
26	
27	
19	
19	
22	
26	
29	
25	
25	
23	
18	
15	
25	
24	
17	
23	
24	
23	
16	
29	
25	
19	
24	
18	
16	
15	
26	
17	
23	
19	
20	
17	
19	
30	
27	
28	
24	
21	
13	
14	
21	
20	
23	
23	
20	
22	
28	
16	
24	
24	
20	
24	
27	
25	
28	
19	
25	
22	
23	
16	
28	
20	
18	
25	
20	
27	
20	
25	
21	
19	
19	
17	
19	
25	
17	
21	
17	
21	
22	
26	
19	
21	
19	
29	
21	
23	
15	
23	
27	
20	
20	
26	
17	
18	
15	
20	
19	
22	
22	
18	
27	
20	
28	
21	
26	
31	
26	
18	
19	
14	
18	
17	
21	
23	
25	
19	
30	
16	
24	
18	
18	
19	
12	
24	
17	
16	
26	
22	
20	
24	
20	
18	
23	
19	
29	
18	
21	
17	
20	
19	
30	
13	
22	
26	
17	
20	
24	
14	
21	
26	
19	
23	
22	
27	
23	
20	
18	
21	
22	
18	
18	
17	
16	
27	
17	
20	
15	
22	
23	
21	
19	
24	
23	
19	
17	
28	
17	
20	
25	
16	
22	
18	
25	
22	
16	
22	
14	
11	
20	
17	
26	
19	
25	
14	
24	
14	
16	
17	
17	
19	
22	
17	
23	
17	
16	
18	
21	
24	
15	
23	
23	
11	
22	
28	
19	
18	
23	
27	
21	
23	
19	
19	
16	
17	
13	
16	
27	
26	
20	
20	
22	
16	
20	
21	
19	
21	
22	
15	
11	
23	
12	
20	
18	
20	
21	
22	
18	
28	
16	
24	
24	
13	
31	
23	
29	
15	
22	
17	
14	
22	
27	
19	
17	
21	
21	
31	
18	
27	
21	
21	
23	
26	
29	
21	
19	
19	
27	
18	
21	
24	
23	
18	
23	
17	
12	
22	
23	
23	
18	
19	
20	
22	
16	
17	
15	
14	
12	
22	
23	
22	
18	
23	
10	
21	
21	
17	
16	
18	
12	
29	
22	
17	
17	
19	
21	
13	
19	
27	
19	
17	
13	
25	
20	
15	
22	
22	
23	
24	
22	
16	
25	
17	
23	
17	
21	
12	
19	
23	
14	
28	
25	
21	
19	
16	
20	
22	
14	
23	
19	
21	
18	
13	
20	
18	
14	
22	
20	
15	
18	
14	
20	
26	
15	
18	
11	
20	
24	
11	
23	
24	
11	
20	
18	
24	
29	
19	
19	
17	
17	
13	
14	
14	
15	
27	
12	
21	
23	
13	
14	
19	
18	
23	
17	
20	
16	
21	
11	
17	
14	
20	
21	
29	
19	
19	
20	
21	
21	
7	
15	
22	
20	
23	
14	
20	
23	
18	
15	
17	
15	
22	
13	
15	
20	
13	
18	
23	
16	
22	
18	
16	
24	
17	
18	
17	
14	
11	
24	
22	
18	
21	
23	
21	
16	
22	
21	
20	
13	
17	
30	
29	
15	
18	
30	
21	
22	
17	
16	
17	
15	
21	
16	
22	
19	
19	
17	
12	
19	
14	
15	
21	
22	
17	
12	
10	
14	
19	
8	
16	
18	
18	
12	
17	
18	
8	
19	
18	
23	
16	
19	
19	
18	
13	
12	
16	
11	
15	
17	
22	
17	
16	
19	
14	
18	
13	
16	
14	
23	
17	
11	
15	
14	
18	
17	
31	
20	
17	
28	
14	
8	
21	
21	
21	
12	
17	
10	
14	
16	
14	
18	
18	
11	
21	
15	
9	
25	
29	
15	
19	
19	
18	
22	
22	
19	
18	
12	
16	
16	
9	
16	
23	
15	
15	
25	
17	
10	
17	
20	
18	
21	
20	
15	
21	
11	
15	
19	
13	
14	
19	
12	
14	
22	
17	
21	
19	
14	
16	
17	
20	
14	
21	
18	
25	
20	
17	
13	
12	
19	
21	
17	
17	
28	
21	
18	
15	
20	
18	
14	
15	
21	
18	
20	
18	
17	
20	
16	
9	
21	
14	
22	
14	
16	
29	
12	
23	
17	
15	
10	
16	
17	
17	
19	
18	
16	
21	
17	
15	
22	
17	
23	
20	
18	
14	
19	
19	
20	
14	
20	
20	
23	
17	
15	
16	
17	
24	
21	
14	
23	
11	
22	
16	
14	
15	
16	
16	
15	
10	
13	
17	
13	
16	
24	
15	
12	
22	
25	
18	
16	
13	
20	
17	
11	
24	
23	
16	
16	
19	
15	
17	
17	
28	
18	
11	
19	
15	
16	
12	
13	
19	
21	
13	
21	
21	
18	
15	
21	
14	
23	
14	
18	
17	
19	
13	
15	
12	
17	
14	
15	
19	
14	
20	
15	
16	
19	
13	
16	
22	
18	
22	
14	
12	
20	
12	
15	
15	
22	
13	
14	
12	
14	
19	
19	
19	
14	
12	
22	
16	
16	
13	
18	
18	
12	
15	
13	
19	
20	
12	
14	
20	
20	
13	
11	
16	
23	
17	
21	
14	
12	
18	
17	
12	
16	
12	
14	
12	
16	
16	
11	
12	
19	
21	
18	
15	
14	
15	
11	
15	
9	
12	
18	
16	
14	
22	
17	
19	
18	
16	
19	
15	
17	
17	
18	
13	
18	
11	
10	
13	
19	
14	
14	
11	
13	
15	
20	
12	
10	
21	
13	
20	
26	
10	
16	
18	
15	
17	
15	
17	
20	
14	
18	
16	
18	
22	
23	
8	
15	
10	
18	
17	
10	
18	
19	
8	
12	
17	
18	
16	
12	
12	
15	
22	
26	
18	
21	
19	
9	
16	
11	
10	
18	
21	
20	
13	
13	
19	
23	
10	
10	
13	
21	
14	
17	
12	
12	
16	
15	
17	
13	
16	
11	
20	
16	
19	
15	
24	
22	
17	
20	
17	
12	
17	
25	
16	
21	
11	
10	
13	
15	
23	
20	
9	
14	
20	
13	
12	
13	
21	
21	
17	
14	
13	
13	
8	
12	
15	
11	
17	
15	
15	
13	
9	
8	
20	
16	
12	
18	
24	
15	
19	
19	
8	
17	
11	
12	
18	
17	
9	
23	
13	
12	
18	
14	
9	
20	
16	
22	
16	
15	
10	
20	
19	
16	
14	
14	
18	
18	
16	
12	
25	
19	
17	
12	
18	
19	
19	
18	
19	
18	
19	
20	
14	
16	
15	
17	
14	
20	
18	
13	
12	
16	
18	
8	
19	
11	
12	
20	
15	
15	
20	
15	
20	
17	
18	
15	
16	
11	
9	
20	
18	
19	
18	
11	
15	
18	
15	
11	
14	
17	
14	
11	
9	
10	
10	
13	
7	
15	
17	
8	
15	
17	
17	
14	
12	
19	
20	
10	
14	
14	
18	
9	
14	
19	
4	
14	
13	
13	
19	
16	
13	
17	
13	
15	
16	
10	
23	
11	
11	
15	
14	
12	
17	
14	
17	
15	
23	
19	
16	
21	
12	
21	
12	
12	
11	
15	
9	
19	
18	
19	
17	
14	
13	
10	
24	
20	
18	
13	
25	
13	
13	
16	
14	
18	
23	
17	
13	
24	
19	
7	
15	
10	
12	
11	
14	
12	
21	
19	
19	
10	
13	
16	
18	
19	
21	
19	
14	
22	
13	
9	
9	
10	
18	
12	
16	
20	
19	
12	
15	
12	
15	
19	
17	
12	
12	
14	
18	
12	
20	
12	
22	
15	
12	
12	
14	
16	
14	
14	
18	
8	
16	
13	
13	
10	
16	
14	
13	
16	
12	
12	
15	
16	
11	
18	
13	
14	
16	
20	
23	
16	
17	
13	
15	
15	
18	
13	
15	
12	
13	
8	
14	
13	
17	
14	
16	
13	
11	
11	
10	
10	
23	
19	
13	
17	
18	
16	
16	
14	
15	
10	
11	
10	
17	
12	
5	
16	
19	
8	
11	
24	
21	
14	
20	
9	
12	
10	
18	
11	
11	
14	
19	
14	
24	
18	
16	
14	
18	
17	
12	
20	
14	
16	
10	
22	
16	
16	
21	
18	
16	
10	
17	
12	
12	
19	
15	
14	
16	
17	
13	
13	
19	
12	
16	
10	
20	
14	
5	
21	
13	
14	
13	
18	
21	
14	
10	
15	
10	
15	
12	
16	
16	
17	
10	
15	
14	
7	
18	
5	
15	
22	
14	
15	
11	
20	
7	
11	
8	
15	
10	
17	
11	
12	
13	
21	
11	
15	
7	
15	
10	
15	
14	
11	
14	
11	
14	
16	
15	
17	
14	
11	
22	
11	
16	
9	
18	
6	
12	
11	
8	
16	
11	
13	
9	
15	
11	
13	
20	
9	
16	
8	
18	
13	
17	
16	
17	
20	
11	
11	
13	
15	
16	
17	
13	
8	
12	
14	
16	
13	
10	
12	
12	
23	
16	
18	
10	
14	
14	
14	
9	
15	
16	
13	
15	
14	
14	
13	
15	
21	
5	
16	
16	
14	
11	
9	
14	
14	
18	
18	
16	
16	
17	
11	
18	
11	
10	
12	
6	
14	
17	
13	
9	
8	
15	
13	
10	
14	
13	
14	
13	
14	
15	
17	
10	
12	
17	
16	
21	
11	
10	
12	
18	
12	
10	
12	
16	
11	
8	
12	
16	
16	
14	
21	
12	
11	
15	
17	
15	
13	
15	
7	
12	
10	
14	
11	
16	
16	
12	
16	
16	
15	
11	
17	
13	
13	
18	
15	
8	
11	
13	
16	
12	
16	
15	
21	
12	
12	
13	
14	
14	
10	
16	
13	
14	
17	
12	
16	
19	
11	
11	
8	
19	
13	
8	
15	
15	
12	
18	
13	
18	
13	
11	
10	
11	
17	
12	
12	
6	
19	
10	
12	
13	
11	
8	
7	
15	
18	
10	
9	
16	
19	
13	
20	
20	
18	
14	
13	
8	
15	
6	
16	
12	
10	
15	
20	
10	
12	
15	
15	
14	
9	
18	
23	
15	
10	
6	
18	
11	
15	
14	
7	
8	
9	
16	
18	
9	
19	
15	
12	
11	
11	
14	
14	
10	
12	
14	
9	
8	
16	
14	
10	
16	
12	
15	
12	
14	
3	
7	
8	
7	
10	
17	
15	
8	
11	
19	
10	
20	
8	
20	
10	
11	
17	
8	
15	
11	
16	
13	
6	
10	
18	
19	
10	
15	
11	
11	
14	
15	
18	
13	
14	
9	
8	
14	
12	
11	
6	
13	
13	
20	
7	
12	
15	
19	
12	
9	
15	
15	
13	
10	
12	
8	
13	
11	
16	
12	
14	
17	
13	
12	
6	
8	
13	
14	
11	
12	
9	
17	
14	
10	
13	
12	
15	
12	
13	
18	
9	
25	
11	
8	
8	
12	
9	
13	
15	
8	
16	
7	
8	
15	
15	
15	
15	
11	
12	
15	
13	
12	
16	
14	
12	
16	
15	
11	
7	
13	
21	
15	
17	
10	
4	
9	
12	
15	
10	
14	
8	
8	
10	
13	
15	
10	
13	
13	
19	
15	
15	
10	
13	
6	
6	
10	
6	
10	
10	
6	
14	
13	
23	
17	
14	
18	
10	
7	
9	
11	
16	
13	
7	
14	
10	
18	
12	
14	
12	
13	
11	
11	
13	
11	
14	
12	
15	
18	
14	
16	
11	
10	
11	
9	
11	
6	
8	
12	
12	
9	
10	
7	
9	
17	
8	
11	
10	
8	
9	
18	
8	
16	
16	
10	
8	
10	
12	
12	
11	
11	
10	
9	
20	
11	
17	
8	
10	
16	
13	
4	
10	
12	
10	
8	
19	
18	
15	
18	
9	
14	
11	
13	
15	
13	
9	
12	
18	
11	
13	
9	
13	
13	
12	
13	
12	
15	
7	
4	
11	
15	
11	
12	
19	
12	
11	
12	
10	
16	
16	
16	
7	
15	
22	
12	
13	
16	
11	
14	
14	
16	
12	
7	
12	
9	
17	
13	
11	
11	
11	
10	
16	
10	
5	
15	
13	
11	
10	
21	
8	
16	
8	
11	
16	
17	
14	
10	
13	
13	
11	
9	
14	
14	
13	
19	
13	
13	
9	
13	
10	
11	
12	
13	
13	
13	
9	
8	
20	
13	
10	
7	
9	
8	
6	
12	
17	
10	
15	
7	
12	
9	
12	
14	
13	
8	
7	
9	
13	
7	
11	
15	
12	
14	
14	
12	
15	
14	
17	
12	
13	
14	
13	
10	
9	
13	
12	
11	
16	
7	
15	
8	
17	
13	
9	
11	
11	
19	
10	
11	
17	
7	
10	
10	
9	
11	
12	
12	
11	
16	
10	
9	
14	
11	
11	
11	
9	
11	
13	
7	
14	
6	
12	
9	
14	
13	
13	
15	
17	
15	
14	
9	
15	
8	
10	
17	
11	
11	
4	
9	
8	
9	
8	
11	
12	
8	
17	
10	
15	
9	
11	
15	
12	
22	
10	
17	
11	
15	
14	
11	
10	
15	
13	
17	
20	
7	
13	
11	
18	
20	
19	
4	
10	
16	
13	
10	
16	
13	
11	
18	
11	
14	
8	
7	
12	
14	
14	
16	
19	
12	
13	
9	
9	
9	
6	
7	
18	
9	
9	
11	
16	
10	
5	
14	
15	
12	
13	
7	
16	
7	
13	
15	
13	
13	
13	
11	
15	
12	
11	
12	
15	
10	
12	
12	
14	
5	
13	
8	
8	
8	
11	
7	
14	
12	
16	
11	
15	
9	
9	
6	
10	
12	
19	
12	
13	
12	
15	
6	
12	
12	
13	
14	
7	
7	
21	
7	
12	
9	
12	
18	
10	
16	
14	
12	
12	
14	
11	
11	
10	
10	
12	
12	
14	
7	
10	
6	
20	
11	
10	
10	
10	
13	
11	
14	
6	
8	
8	
14	
15	
10	
16	
10	
6	
6	
10	
8	
10	
7	
14	
11	
10	
14	
7	
13	
12	
8	
8	
16	
8	
11	
19	
17	
12	
14	
15	
12	
6	
11	
12	
7	
10	
12	
12	
13	
5	
10	
17	
15	
9	
12	
13	
13	
10	
8	
20	
10	
18	
4	
15	
11	
9	
15	
9	
16	
10	
22	
6	
10	
12	
19	
12	
5	
13	
10	
7	
9	
13	
12	
15	
11	
12	
11	
18	
11	
9	
8	
15	
10	
7	
5	
12	
11	
6	
11	
11	
17	
8	
9	
10	
8	
7	
12	
10	
13	
6	
6	
4	
8	
11	
8	
6	
9	
8	
10	
6	
6	
16	
7	
12	
5	
14	
13	
14	
12	
14	
6	
7	
8	
9	
12	
14	
12	
7	
12	
14	
9	
8	
9	
15	
14	
7	
8	
7	
15	
14	
10	
8	
18	
14	
7	
13	
9	
9	
6	
8	
11	
10	
8	
10	
5	
10	
9	
16	
13	
13	
10	
11	
12	
14	
7	
7	
8	
9	
9	
9	
10	
8	
10	
11	
10	
16	
7	
14	
8	
16	
4	
8	
5	
10	
5	
10	
10	
11	
7	
9	
7	
9	
11	
9	
15	
10	
9	
11	
10	
12	
12	
11	
10	
22	
5	
13	
5	
14	
11	
13	
11	
7	
9	
8	
9	
11	
8	
20	
14	
11	
10	
10	
15	
7	
8	
7	
11	
13	
12	
16	
3	
17	
9	
14	
10	
7	
11	
9	
11	
15	
12	
19	
7	
17	
16	
7	
14	
5	
7	
8	
16	
15	
8	
14	
11	
16	
9	
12	
8	
2	
12	
9	
13	
6	
8	
15	
9	
13	
11	
13	
10	
12	
12	
7	
15	
10	
7	
15	
13	
15	
8	
18	
15	
4	
14	
6	
16	
14	
10	
9	
12	
4	
8	
8	
10	
10	
11	
8	
18	
19	
6	
9	
16	
16	
7	
13	
11	
14	
11	
10	
7	
10	
15	
14	
6	
8	
7	
10	
8	
13	
12	
6	
15	
12	
8	
8	
13	
8	
13	
11	
8	
6	
6	
11	
10	
8	
10	
12	
8	
13	
9	
16	
13	
11	
11	
9	
8	
7	
8	
6	
7	
10	
7	
6	
11	
6	
10	
14	
7	
11	
13	
7	
18	
11	
11	
8	
14	
8	
7	
11	
7	
8	
11	
11	
10	
12	
9	
13	
9	
12	
8	
7	
8	
11	
14	
9	
9	
5	
10	
14	
11	
19	
17	
10	
6	
8	
9	
11	
15	
13	
5	
9	
10	
7	
12	
8	
5	
11	
7	
9	
10	
13	
8	
12	
10	
15	
8	
8	
9	
17	
7	
8	
12	
12	
6	
10	
16	
9	
15	
10	
9	
9	
9	
9	
15	
11	
4	
8	
20	
11	
7	
9	
6	
8	
16	
14	
10	
6	
10	
14	
15	
9	
9	
5	
14	
3	
13	
12	
6	
15	
9	
12	
16	
11	
9	
7	
16	
10	
14	
11	
10	
9	
12	
12	
7	
5	
8	
5	
11	
10	
7	
12	
10	
9	
8	
7	
10	
11	
15	
10	
10	
5	
16	
10	
14	
8	
7	
8	
15	
13	
11	
10	
12	
9	
12	
14	
8	
13	
9	
6	
9	
8	
7	
11	
11	
13	
15	
18	
12	
14	
7	
9	
12	
4	
7	
11	
8	
10	
11	
7	
10	
7	
11	
8	
14	
11	
7	
15	
11	
13	
8	
14	
12	
10	
12	
8	
11	
12	
6	
12	
9	
10	
12	
4	
12	
11	
11	
13	
8	
16	
11	
11	
5	
7	
7	
8	
6	
7	
8	
14	
4	
15	
6	
7	
5	
14	
8	
7	
8	
8	
12	
8	
5	
8	
13	
10	
4	
7	
7	
13	
4	
8	
7	
9	
14	
11	
4	
5	
9	
9	
5	
6	
9	
14	
10	
6	
7	
10	
7	
7	
2	
11	
11	
9	
6	
8	
7	
11	
9	
7	
11	
6	
11	
7	
8	
11	
8	
11	
3	
10	
14	
13	
12	
11	
6	
6	
9	
10	
12	
8	
15	
8	
7	
9	
11	
11	
9	
16	
8	
10	
5	
6	
9	
10	
9	
11	
8	
14	
13	
9	
11	
3	
11	
12	
8	
14	
9	
10	
7	
14	
9	
14	
6	
16	
9	
9	
5	
9	
8	
13	
7	
12	
8	
9	
8	
10	
8	
11	
7	
15	
12	
15	
7	
6	
7	
15	
12	
7	
10	
15	
11	
7	
5	
12	
6	
7	
8	
9	
7	
1	
12	
4	
4	
8	
6	
7	
10	
7	
9	
6	
9	
5	
7	
14	
7	
14	
6	
12	
9	
7	
7	
8	
3	
7	
11	
12	
9	
16	
3	
10	
12	
13	
8	
4	
8	
9	
14	
8	
12	
11	
9	
9	
13	
7	
9	
11	
8	
13	
7	
6	
11	
8	
10	
4	
8	
13	
12	
8	
7	
8	
7	
8	
11	
10	
9	
6	
9	
2	
10	
6	
15	
8	
9	
7	
9	
12	
10	
12	
12	
2	
7	
5	
7	
11	
12	
7	
6	
12	
8	
6	
13	
6	
10	
10	
5	
10	
10	
9	
12	
12	
7	
13	
6	
9	
16	
12	
11	
13	
4	
13	
5	
8	
6	
8	
10	
13	
7	
12	
9	
7	
6	
13	
8	
8	
6	
8	
8	
8	
8	
13	
13	
6	
7	
11	
6	
12	
12	
6	
11	
8	
10	
9	
11	
11	
14	
9	
7	
11	
9	
9	
8	
7	
8	
13	
6	
10	
12	
6	
12	
8	
13	
8	
14	
14	
12	
4	
15	
7	
4	
9	
14	
7	
5	
6	
5	
6	
11	
7	
13	
6	
3	
10	
4	
6	
9	
7	
5	
16	
8	
12	
13	
15	
7	
6	
7	
7	
6	
8	
4	
11	
9	
10	
6	
12	
8	
13	
8	
13	
9	
8	
3	
9	
8	
9	
5	
14	
13	
6	
10	
6	
9	
7	
6	
10	
15	
7	
10	
8	
9	
11	
10	
7	
8	
8	
6	
12	
3	
10	
9	
8	
10	
12	
5	
10	
11	
6	
15	
11	
4	
5	
5	
8	
7	
9	
10	
15	
7	
10	
9	
10	
11	
15	
7	
12	
9	
9	
13	
8	
11	
2	
12	
7	
12	
5	
9	
12	
6	
12	
11	
8	
8	
6	
8	
13	
6	
10	
4	
15	
12	
8	
11	
8	
3	
9	
6	
6	
7	
12	
8	
6	
13	
8	
9	
3	
11	
9	
5	
13	
12	
9	
12	
11	
10	
8	
16	
12	
7	
6	
6	
6	
9	
3	
19	
7	
7	
9	
9	
6	
12	
6	
7	
10	
16	
7	
3	
9	
6	
15	
8	
10	
12	
3	
5	
9	
12	
12	
6	
9	
10	
11	
19	
9	
13	
7	
9	
8	
11	
11	
9	
9	
11	
5	
9	
9	
8	
10	
4	
7	
2	
17	
4	
10	
14	
7	
11	
8	
8	
8	
5	
13	
12	
12	
5	
9	
5	
10	
6	
6	
6	
12	
7	
6	
7	
10	
4	
8	
11	
8	
8	
8	
7	
8	
9	
5	
7	
8	
11	
8	
8	
16	
9	
8	
2	
14	
8	
4	
9	
8	
9	
5	
5	
9	
5	
7	
5	
13	
10	
8	
4	
8	
11	
12	
8	
9	
7	
7	
10	
7	
8	
8	
9	
8	
14	
8	
9	
7	
8	
5	
9	
8	
10	
7	
9	
8	
8	
15	
10	
9	
10	
8	
10	
7	
7	
4	
6	
12	
5	
14	
3	
6	
16	
9	
8	
10	
12	
7	
8	
8	
5	
7	
6	
9	
9	
9	
6	
3	
6	
9	
9	
10	
9	
2	
14	
9	
4	
10	
13	
4	
5	
7	
6	
5	
8	
10	
13	
7	
16	
3	
7	
6	
10	
7	
11	
11	
13	
9	
8	
3	
8	
8	
8	
8	
8	
9	
10	
6	
12	
7	
3	
4	
11	
5	
5	
9	
4	
7	
7	
10	
10	
8	
9	
6	
6	
11	
5	
8	
5	
12	
10	
4	
5	
14	
11	
8	
5	
5	
13	
5	
9	
9	
9	
8	
11	
11	
8	
12	
8	
6	
6	
8	
10	
8	
8	
7	
9	
4	
14	
9	
11	
4	
6	
11	
10	
11	
11	
10	
9	
7	
12	
9	
8	
12	
6	
4	
9	
8	
9	
10	
6	
6	
4	
8	
10	
10	
8	
9	
5	
11	
9	
6	
6	
6	
9	
9	
7	
7	
7	
7	
15	
13	
8	
6	
5	
4	
10	
8	
10	
13	
6	
7	
8	
8	
10	
3	
8	
9	
6	
6	
16	
8	
9	
3	
9	
14	
6	
11	
7	
6	
10	
10	
8	
5	
7	
8	
5	
13	
10	
8	
12	
9	
12	
9	
16	
4	
4	
4	
11	
5	
6	
6	
7	
6	
13	
7	
15	
10	
8	
8	
10	
9	
5	
8	
3	
4	
11	
6	
6	
13	
4	
3	
10	
5	
11	
6	
6	
10	
8	
5	
10	
9	
8	
13	
5	
6	
6	
10	
8	
8	
5	
8	
11	
6	
3	
1	
4	
6	
9	
12	
7	
7	
8	
8	
3	
6	
2	
10	
7	
8	
10	
9	
8	
9	
8	
6	
3	
9	
2	
6	
6	
6	
8	
11	
10	
12	
15	
6	
7	
8	
6	
2	
4	
11	
11	
6	
2	
7	
11	
9	
4	
10	
9	
9	
10	
9	
7	
9	
10	
12	
6	
8	
6	
8	
4	
4	
6	
8	
9	
7	
4	
10	
10	
6	
9	
8	
8	
6	
9	
7	
8	
6	
9	
12	
3	
10	
10	
6	
4	
7	
10	
10	
8	
3	
7	
8	
5	
11	
11	
6	
12	
7	
9	
5	
6	
11	
8	
3	
3	
5	
6	
8	
18	
7	
6	
9	
9	
11	
6	
14	
9	
6	
5	
7	
6	
6	
10	
11	
6	
8	
8	
10	
8	
4	
7	
7	
4	
8	
8	
9	
6	
4	
9	
11	
6	
4	
5	
6	
8	
7	
9	
6	
5	
10	
4	
12	
5	
9	
7	
5	
5	
6	
5	
4	
7	
7	
6	
12	
6	
10	
13	
6	
5	
8	
10	
6	
5	
7	
6	
7	
5	
7	
11	
12	
9	
6	
5	
5	
8	
5	
13	
7	
6	
8	
7	
3	
4	
5	
8	
7	
8	
8	
9	
8	
10	
9	
9	
14	
3	
5	
8	
3	
9	
9	
6	
5	
10	
5	
5	
8	
5	
10	
5	
8	
10	
11	
7	
8	
9	
9	
5	
4	
7	
7	
10	
6	
9	
6	
8	
5	
10	
9	
12	
8	
3	
10	
5	
6	
8	
5	
7	
9	
3	
11	
12	
1	
4	
6	
8	
5	
5	
6	
13	
4	
5	
8	
8	
15	
9	
8	
4	
6	
8	
9	
1	
3	
5	
11	
12	
11	
8	
11	
7	
4	
7	
7	
8	
4	
10	
6	
11	
13	
6	
9	
8	
5	
13	
5	
8	
7	
6	
3	
3	
4	
10	
9	
2	
5	
7	
12	
7	
9	
5	
7	
5	
3	
6	
8	
7	
5	
15	
5	
3	
8	
11	
7	
7	
7	
6	
8	
8	
2	
9	
4	
6	
5	
8	
7	
6	
8	
8	
13	
8	
7	
10	
9	
11	
8	
3	
7	
5	
12	
6	
6	
7	
4	
7	
6	
2	
7	
10	
10	
4	
7	
5	
4	
14	
6	
6	
6	
8	
11	
6	
10	
7	
7	
7	
11	
10	
7	
7	
6	
8	
11	
6	
6	
15	
10	
1	
2	
8	
9	
8	
7	
10	
6	
3	
8	
6	
9	
5	
11	
10	
9	
8	
9	
5	
7	
5	
5	
5	
3	
2	
6	
10	
3	
6	
7	
5	
7	
3	
5	
3	
15	
10	
4	
12	
4	
6	
11	
4	
6	
11	
7	
6	
5	
8	
8	
6	
9	
6	
8	
8	
8	
8	
5	
3	
4	
3	
8	
10	
10	
10	
7	
6	
9	
7	
4	
9	
7	
11	
6	
5	
10	
13	
4	
7	
4	
8	
9	
7	
8	
6	
6	
3	
7	
3	
7	
6	
6	
10	
4	
7	
9	
7	
6	
6	
8	
7	
7	
9	
9	
5	
6	
7	
8	
8	
7	
6	
7	
3	
5	
7	
13	
3	
6	
6	
12	
12	
4	
3	
8	
8	
2	
4	
11	
7	
3	
10	
8	
4	
6	
10	
7	
4	
10	
9	
3	
9	
3	
9	
7	
9	
5	
10	
5	
7	
3	
8	
8	
5	
8	
6	
5	
11	
10	
4	
5	
7	
4	
5	
9	
7	
7	
7	
4	
8	
8	
3	
11	
6	
3	
11	
7	
6	
0	
2	
6	
9	
6	
7	
6	
4	
8	
13	
3	
8	
2	
7	
3	
7	
6	
5	
6	
9	
1	
7	
5	
4	
7	
5	
0	
10	
6	
10	
1	
5	
8	
5	
6	
5	
18	
4	
12	
8	
5	
5	
5	
10	
5	
9	
3	
5	
14	
9	
6	
4	
8	
12	
7	
7	
2	
7	
7	
4	
7	
5	
9	
8	
3	
13	
11	
5	
13	
9	
9	
2	
9	
11	
9	
6	
5	
4	
7	
5	
7	
9	
6	
7	
6	
3	
11	
7	
11	
4	
11	
11	
4	
3	
6	
9	
8	
5	
2	
3	
7	
5	
9	
8	
4	
7	
5	
7	
9	
5	
7	
10	
8	
11	
6	
8	
4	
9	
10	
12	
4	
6	
4	
1	
10	
2	
10	
5	
8	
7	
6	
8	
12	
6	
3	
10	
8	
14	
8	
7	
7	
6	
4	
7	
6	
9	
7	
13	
3	
7	
6	
3	
4	
8	
4	
10	
7	
8	
6	
5	
3	
15	
6	
8	
9	
7	
3	
5	
8	
5	
4	
9	
8	
8	
11	
7	
7	
10	
4	
4	
5	
7	
8	
13	
5	
8	
5	
7	
11	
8	
11	
8	
8	
7	
12	
5	
8	
8	
8	
10	
6	
3	
11	
1	
8	
7	
4	
4	
4	
9	
5	
15	
5	
10	
10	
6	
7	
4	
1	
9	
6	
7	
3	
6	
4	
6	
8	
8	
6	
7	
9	
5	
9	
2	
4	
8	
11	
6	
1	
9	
4	
6	
5	
11	
5	
8	
5	
4	
4	
8	
4	
11	
7	
3	
8	
4	
4	
4	
5	
4	
3	
6	
6	
4	
4	
4	
4	
9	
5	
10	
4	
6	
3	
3	
5	
4	
5	
6	
7	
6	
3	
10	
9	
11	
7	
6	
16	
5	
