#PicoHarp 300  Histogram Data			03/27/2023 12:00:14 PM
#channels per curve
15625
#display curve no.
0	
#memory block no.
0	
#ns/channel
0.1280	
#counts
1	
0	
2	
0	
1	
1	
0	
3	
1	
1	
2	
4	
2	
3	
3	
0	
0	
3	
1	
1	
3	
5	
1	
2	
2	
0	
1	
1	
4	
3	
1	
2	
1	
0	
1	
1	
0	
3	
1	
2	
2	
0	
1	
1	
0	
3	
0	
2	
1	
1	
3	
1	
1	
2	
1	
1	
1	
3	
1	
4	
2	
4	
3	
2	
2	
5	
14	
9	
34	
101	
188	
332	
436	
580	
681	
850	
925	
925	
931	
930	
925	
932	
1000	
923	
865	
920	
869	
958	
894	
876	
892	
888	
898	
826	
923	
805	
829	
821	
856	
848	
897	
784	
821	
778	
799	
787	
793	
781	
809	
728	
817	
750	
739	
812	
813	
751	
776	
774	
772	
763	
773	
765	
764	
764	
721	
764	
703	
715	
744	
734	
751	
683	
695	
688	
699	
734	
725	
698	
664	
667	
677	
660	
667	
661	
698	
697	
653	
683	
703	
677	
712	
632	
688	
671	
661	
706	
650	
706	
648	
633	
635	
628	
644	
596	
655	
672	
670	
667	
670	
649	
625	
639	
610	
639	
621	
609	
615	
613	
643	
586	
652	
568	
604	
639	
631	
569	
626	
598	
588	
622	
618	
623	
584	
588	
594	
582	
612	
559	
590	
550	
573	
626	
563	
568	
546	
564	
567	
543	
578	
574	
545	
567	
560	
523	
556	
540	
554	
527	
555	
576	
534	
577	
525	
555	
558	
549	
538	
525	
531	
536	
535	
538	
537	
527	
521	
494	
540	
530	
547	
529	
488	
489	
536	
525	
507	
453	
534	
499	
508	
518	
482	
523	
549	
495	
488	
498	
530	
520	
515	
509	
509	
515	
509	
455	
513	
451	
479	
494	
503	
473	
473	
503	
496	
469	
476	
503	
482	
534	
467	
478	
481	
448	
464	
481	
445	
479	
477	
471	
475	
459	
506	
504	
433	
471	
460	
465	
500	
469	
435	
427	
440	
483	
437	
432	
430	
457	
442	
476	
454	
430	
505	
475	
441	
504	
436	
459	
458	
430	
447	
427	
425	
459	
437	
419	
432	
451	
428	
433	
452	
455	
444	
426	
481	
456	
438	
435	
405	
431	
434	
446	
438	
431	
465	
432	
418	
399	
421	
425	
441	
411	
413	
425	
418	
391	
411	
406	
412	
402	
376	
410	
396	
421	
413	
367	
410	
369	
429	
444	
392	
394	
424	
417	
410	
416	
435	
393	
461	
357	
375	
412	
367	
420	
396	
391	
379	
445	
390	
385	
369	
371	
427	
414	
389	
356	
427	
395	
364	
401	
366	
399	
365	
370	
396	
401	
358	
370	
373	
400	
369	
355	
375	
352	
374	
399	
380	
369	
381	
370	
378	
396	
385	
326	
406	
349	
380	
351	
330	
338	
388	
298	
363	
392	
348	
367	
347	
353	
365	
331	
364	
379	
396	
352	
340	
388	
323	
344	
355	
354	
380	
338	
355	
378	
380	
340	
397	
353	
338	
360	
335	
326	
336	
323	
330	
323	
300	
329	
323	
336	
360	
340	
314	
332	
323	
331	
277	
332	
346	
307	
342	
341	
306	
325	
330	
328	
350	
350	
314	
321	
326	
351	
330	
330	
321	
296	
314	
311	
316	
346	
321	
298	
304	
323	
279	
315	
320	
324	
323	
280	
285	
278	
325	
309	
305	
311	
344	
301	
295	
305	
298	
301	
275	
302	
329	
319	
301	
278	
313	
293	
298	
292	
274	
294	
286	
323	
292	
294	
311	
269	
304	
343	
276	
313	
303	
318	
293	
328	
301	
299	
291	
343	
300	
311	
271	
277	
296	
284	
271	
306	
307	
313	
295	
311	
280	
279	
287	
281	
293	
260	
278	
294	
278	
273	
278	
278	
280	
282	
277	
252	
293	
253	
294	
280	
294	
256	
261	
288	
298	
255	
270	
284	
298	
258	
263	
280	
263	
265	
250	
270	
240	
266	
284	
253	
241	
256	
259	
255	
242	
284	
268	
297	
263	
301	
321	
261	
259	
254	
254	
262	
254	
258	
252	
280	
250	
287	
267	
264	
230	
255	
255	
267	
248	
268	
270	
246	
246	
252	
249	
233	
239	
267	
253	
243	
234	
234	
276	
251	
249	
244	
219	
257	
228	
268	
227	
253	
235	
253	
268	
227	
239	
234	
244	
228	
235	
236	
238	
232	
263	
226	
247	
214	
217	
251	
227	
239	
211	
219	
270	
245	
237	
215	
250	
220	
213	
214	
218	
226	
207	
224	
222	
257	
242	
200	
231	
248	
236	
257	
250	
232	
223	
231	
210	
236	
248	
234	
238	
221	
225	
215	
220	
233	
199	
221	
228	
230	
232	
228	
226	
213	
247	
194	
235	
194	
207	
231	
236	
232	
211	
234	
206	
191	
231	
213	
223	
238	
217	
224	
219	
208	
210	
207	
202	
208	
190	
216	
200	
190	
238	
208	
192	
231	
213	
215	
202	
196	
203	
213	
207	
218	
214	
192	
213	
216	
205	
186	
210	
174	
212	
216	
216	
186	
210	
221	
192	
201	
202	
207	
219	
203	
194	
215	
188	
175	
205	
211	
187	
198	
202	
182	
206	
209	
192	
192	
183	
194	
191	
186	
181	
212	
220	
216	
207	
193	
201	
205	
215	
183	
200	
195	
207	
163	
188	
211	
186	
188	
192	
199	
182	
204	
179	
184	
185	
196	
182	
182	
187	
163	
212	
179	
199	
170	
178	
180	
177	
207	
184	
162	
213	
184	
187	
206	
188	
169	
179	
169	
184	
177	
172	
181	
156	
151	
165	
181	
187	
179	
185	
169	
221	
168	
170	
174	
168	
192	
168	
197	
163	
190	
175	
173	
167	
162	
173	
173	
159	
198	
179	
176	
159	
166	
179	
176	
157	
167	
178	
172	
176	
160	
164	
199	
160	
144	
170	
167	
166	
172	
185	
183	
170	
162	
156	
170	
157	
181	
162	
172	
169	
167	
153	
173	
190	
174	
156	
154	
150	
163	
180	
174	
174	
171	
166	
176	
153	
154	
159	
154	
156	
163	
159	
165	
155	
156	
142	
190	
158	
175	
163	
162	
174	
159	
167	
151	
160	
151	
145	
144	
154	
152	
169	
144	
159	
170	
158	
139	
149	
148	
147	
158	
161	
166	
190	
142	
148	
143	
172	
145	
162	
155	
141	
158	
157	
174	
146	
149	
147	
163	
151	
156	
144	
150	
160	
172	
171	
180	
144	
166	
155	
135	
128	
164	
148	
136	
119	
150	
131	
160	
178	
137	
158	
164	
170	
138	
165	
144	
137	
129	
149	
151	
133	
119	
152	
158	
150	
165	
140	
161	
140	
132	
150	
138	
153	
135	
135	
156	
160	
160	
143	
140	
140	
142	
147	
145	
143	
138	
164	
147	
152	
164	
139	
147	
145	
135	
143	
143	
130	
150	
157	
145	
156	
150	
136	
137	
150	
124	
140	
125	
127	
148	
112	
130	
121	
123	
155	
133	
153	
151	
123	
132	
141	
137	
123	
124	
129	
126	
121	
150	
128	
133	
146	
140	
114	
129	
139	
133	
117	
127	
122	
137	
113	
134	
162	
151	
131	
127	
140	
126	
126	
127	
138	
106	
140	
121	
119	
115	
130	
132	
117	
155	
119	
150	
131	
106	
136	
132	
137	
116	
117	
132	
136	
121	
136	
125	
126	
121	
126	
121	
120	
115	
126	
116	
127	
128	
140	
121	
123	
143	
121	
120	
116	
105	
102	
113	
110	
127	
98	
133	
135	
110	
125	
122	
113	
135	
125	
110	
108	
103	
121	
129	
108	
118	
120	
115	
107	
135	
119	
105	
120	
115	
112	
132	
132	
121	
129	
115	
110	
123	
118	
95	
127	
96	
127	
114	
117	
115	
105	
107	
111	
106	
120	
98	
111	
105	
107	
121	
108	
131	
102	
112	
120	
121	
126	
123	
140	
111	
123	
90	
95	
117	
118	
104	
106	
129	
119	
128	
99	
106	
106	
97	
110	
106	
113	
103	
121	
92	
119	
95	
113	
110	
104	
95	
114	
137	
106	
102	
89	
107	
134	
97	
100	
109	
116	
115	
131	
99	
87	
124	
89	
110	
105	
112	
114	
110	
83	
111	
106	
109	
109	
93	
105	
107	
115	
110	
101	
101	
103	
112	
100	
100	
118	
109	
112	
103	
95	
115	
106	
100	
103	
111	
93	
86	
106	
102	
76	
107	
112	
103	
91	
121	
105	
105	
102	
98	
93	
97	
108	
95	
100	
106	
102	
98	
97	
99	
88	
99	
84	
85	
111	
93	
107	
104	
87	
98	
97	
95	
78	
95	
100	
102	
92	
104	
91	
85	
108	
89	
90	
94	
95	
88	
109	
100	
100	
96	
85	
91	
78	
93	
81	
103	
104	
103	
106	
99	
103	
86	
87	
89	
89	
78	
96	
98	
97	
87	
92	
88	
77	
94	
97	
97	
98	
101	
96	
92	
93	
88	
85	
86	
116	
82	
94	
98	
85	
101	
84	
87	
79	
85	
98	
96	
85	
97	
86	
89	
85	
79	
81	
94	
95	
90	
107	
92	
86	
107	
81	
85	
88	
79	
87	
86	
86	
81	
78	
79	
87	
79	
97	
79	
84	
85	
91	
86	
111	
95	
92	
86	
73	
64	
105	
93	
103	
78	
94	
97	
89	
85	
85	
80	
109	
69	
76	
100	
94	
82	
83	
101	
93	
85	
75	
94	
81	
86	
72	
93	
98	
78	
91	
81	
74	
74	
90	
85	
88	
76	
70	
88	
71	
100	
85	
90	
85	
67	
89	
80	
86	
80	
90	
79	
70	
94	
103	
90	
80	
83	
72	
82	
73	
67	
79	
73	
100	
90	
85	
63	
84	
84	
84	
67	
80	
69	
79	
84	
76	
86	
96	
102	
79	
84	
73	
72	
69	
66	
72	
85	
77	
89	
87	
64	
80	
76	
77	
80	
94	
81	
72	
79	
80	
80	
76	
83	
75	
91	
82	
73	
81	
102	
80	
82	
79	
71	
77	
63	
81	
71	
75	
61	
76	
82	
76	
80	
63	
82	
73	
77	
67	
87	
76	
73	
59	
69	
78	
77	
90	
81	
65	
84	
55	
67	
71	
79	
84	
74	
70	
78	
69	
69	
73	
71	
75	
75	
63	
67	
62	
64	
62	
86	
84	
76	
76	
77	
77	
79	
70	
75	
70	
63	
69	
65	
75	
65	
74	
71	
72	
67	
75	
73	
65	
89	
71	
70	
61	
57	
72	
83	
63	
55	
82	
80	
62	
69	
69	
67	
81	
73	
69	
73	
71	
63	
88	
65	
70	
72	
56	
68	
61	
71	
66	
87	
74	
60	
66	
61	
65	
56	
69	
70	
69	
72	
67	
65	
77	
59	
72	
67	
65	
65	
52	
64	
71	
81	
48	
78	
78	
73	
58	
70	
60	
67	
72	
58	
71	
78	
70	
63	
68	
60	
64	
64	
66	
70	
73	
72	
63	
69	
57	
52	
61	
53	
55	
62	
60	
62	
67	
70	
62	
57	
64	
60	
58	
59	
62	
64	
49	
55	
67	
64	
70	
52	
63	
61	
57	
67	
63	
66	
58	
55	
49	
62	
74	
55	
58	
59	
71	
60	
69	
76	
63	
64	
50	
46	
80	
67	
72	
55	
63	
61	
63	
73	
62	
62	
55	
76	
71	
59	
70	
47	
54	
56	
53	
58	
55	
70	
68	
52	
67	
46	
46	
63	
61	
60	
64	
71	
59	
53	
46	
67	
65	
62	
57	
64	
37	
71	
55	
55	
59	
58	
58	
58	
58	
56	
65	
52	
51	
61	
68	
61	
41	
50	
55	
43	
53	
66	
54	
59	
45	
55	
63	
59	
49	
56	
54	
56	
55	
55	
60	
59	
50	
60	
47	
62	
59	
55	
53	
64	
51	
57	
45	
65	
49	
54	
64	
56	
47	
60	
48	
68	
62	
80	
64	
56	
57	
56	
57	
60	
55	
51	
53	
61	
55	
47	
52	
52	
64	
53	
51	
59	
54	
65	
58	
53	
57	
52	
61	
48	
54	
61	
53	
54	
47	
56	
52	
45	
53	
35	
45	
52	
59	
47	
50	
71	
43	
53	
50	
56	
49	
49	
59	
59	
45	
64	
51	
48	
44	
50	
45	
50	
48	
52	
56	
62	
41	
49	
55	
62	
65	
45	
48	
51	
49	
53	
55	
51	
54	
57	
44	
39	
61	
63	
47	
42	
47	
55	
37	
44	
57	
49	
67	
64	
57	
46	
49	
43	
43	
50	
42	
43	
43	
54	
48	
40	
57	
50	
55	
52	
46	
42	
36	
51	
47	
57	
53	
48	
62	
67	
52	
50	
48	
58	
45	
46	
38	
48	
41	
48	
42	
66	
52	
60	
52	
48	
60	
49	
44	
39	
60	
48	
43	
42	
63	
46	
48	
55	
38	
55	
61	
46	
54	
48	
57	
40	
37	
53	
49	
36	
41	
41	
46	
37	
40	
40	
51	
44	
56	
55	
49	
41	
49	
49	
41	
43	
47	
53	
47	
61	
52	
36	
52	
47	
65	
40	
43	
48	
41	
39	
47	
52	
45	
38	
47	
48	
43	
45	
57	
45	
36	
46	
36	
46	
53	
36	
59	
53	
41	
32	
60	
42	
28	
33	
44	
43	
55	
35	
47	
39	
35	
48	
40	
42	
40	
55	
54	
44	
39	
45	
52	
43	
47	
30	
37	
45	
40	
32	
42	
35	
52	
37	
49	
44	
37	
43	
32	
43	
39	
53	
43	
38	
44	
37	
44	
44	
40	
37	
45	
49	
45	
39	
44	
34	
45	
40	
34	
45	
47	
44	
53	
33	
39	
38	
34	
42	
41	
34	
40	
32	
46	
41	
45	
38	
55	
30	
34	
40	
35	
50	
51	
35	
45	
40	
38	
33	
48	
40	
33	
43	
47	
37	
34	
62	
38	
48	
37	
43	
50	
32	
34	
34	
43	
53	
26	
56	
44	
46	
36	
39	
50	
35	
49	
39	
42	
39	
37	
34	
48	
39	
36	
32	
42	
46	
47	
43	
47	
37	
45	
39	
38	
38	
43	
42	
48	
44	
37	
37	
32	
37	
26	
29	
25	
33	
32	
27	
38	
53	
36	
42	
35	
35	
35	
43	
50	
42	
37	
49	
31	
31	
45	
44	
41	
51	
40	
34	
34	
43	
39	
42	
40	
40	
44	
33	
46	
42	
37	
38	
45	
26	
42	
34	
38	
35	
41	
33	
45	
39	
39	
42	
40	
38	
24	
42	
35	
38	
39	
37	
45	
35	
41	
39	
47	
40	
28	
38	
28	
32	
35	
42	
35	
53	
30	
34	
24	
34	
41	
32	
30	
39	
36	
51	
37	
29	
41	
32	
30	
34	
44	
44	
44	
30	
34	
36	
32	
34	
24	
42	
41	
28	
39	
38	
26	
28	
38	
35	
36	
35	
30	
37	
41	
32	
29	
44	
36	
34	
38	
30	
27	
40	
38	
35	
42	
37	
37	
37	
35	
29	
31	
33	
35	
30	
34	
25	
40	
32	
30	
35	
27	
46	
34	
41	
24	
31	
30	
30	
52	
33	
45	
37	
29	
25	
32	
40	
32	
39	
28	
48	
32	
36	
25	
38	
37	
36	
34	
36	
37	
31	
30	
26	
39	
35	
27	
28	
37	
31	
28	
36	
30	
21	
41	
32	
43	
35	
33	
38	
28	
38	
36	
34	
35	
35	
28	
26	
28	
25	
44	
37	
28	
40	
35	
42	
30	
28	
26	
31	
35	
34	
28	
30	
30	
22	
30	
21	
32	
37	
31	
33	
33	
39	
28	
22	
37	
25	
27	
29	
31	
29	
27	
23	
31	
34	
30	
34	
27	
31	
31	
31	
34	
38	
23	
33	
38	
27	
30	
28	
32	
28	
35	
24	
27	
21	
36	
27	
39	
30	
22	
25	
24	
29	
29	
41	
33	
32	
32	
27	
33	
38	
32	
28	
28	
35	
24	
31	
29	
25	
29	
32	
24	
26	
23	
36	
24	
32	
38	
26	
31	
21	
36	
27	
35	
31	
25	
32	
36	
34	
32	
28	
21	
21	
27	
36	
28	
33	
25	
43	
33	
30	
21	
33	
29	
29	
34	
26	
31	
33	
39	
30	
26	
31	
32	
33	
25	
25	
26	
28	
26	
25	
30	
27	
28	
20	
28	
35	
28	
33	
23	
31	
26	
32	
29	
20	
29	
25	
22	
21	
24	
25	
33	
25	
28	
29	
30	
24	
43	
29	
27	
35	
32	
31	
27	
26	
34	
26	
22	
28	
27	
39	
24	
19	
38	
23	
22	
39	
32	
35	
26	
32	
32	
19	
26	
28	
28	
23	
30	
29	
19	
32	
30	
30	
21	
30	
32	
27	
19	
36	
25	
21	
33	
25	
27	
28	
21	
20	
27	
28	
26	
18	
37	
28	
39	
31	
25	
32	
29	
19	
30	
31	
29	
22	
27	
22	
23	
24	
21	
27	
24	
30	
24	
21	
22	
14	
23	
24	
30	
27	
26	
30	
33	
18	
29	
30	
24	
25	
16	
29	
25	
28	
31	
24	
26	
16	
29	
22	
34	
25	
20	
26	
25	
22	
28	
21	
21	
28	
19	
33	
23	
34	
32	
23	
25	
24	
27	
18	
26	
29	
24	
23	
17	
17	
28	
34	
33	
31	
28	
20	
21	
21	
22	
26	
23	
23	
22	
25	
26	
27	
21	
27	
21	
20	
27	
17	
23	
27	
16	
22	
20	
25	
26	
23	
20	
17	
18	
18	
32	
21	
16	
25	
31	
16	
22	
24	
27	
33	
25	
24	
21	
24	
29	
23	
19	
21	
29	
23	
14	
19	
29	
23	
24	
24	
16	
19	
26	
26	
30	
29	
31	
21	
28	
20	
22	
26	
29	
19	
24	
27	
15	
23	
21	
20	
17	
21	
22	
26	
21	
21	
19	
27	
30	
31	
23	
30	
24	
27	
22	
17	
27	
16	
20	
25	
24	
28	
27	
31	
27	
29	
22	
15	
27	
13	
32	
24	
23	
27	
18	
18	
27	
30	
26	
27	
23	
28	
24	
15	
24	
25	
25	
22	
29	
24	
17	
15	
18	
25	
27	
25	
21	
18	
23	
18	
17	
20	
24	
19	
18	
20	
22	
22	
23	
17	
18	
28	
22	
24	
25	
23	
16	
18	
26	
21	
17	
13	
24	
24	
24	
23	
20	
27	
15	
19	
21	
26	
26	
17	
21	
24	
18	
24	
18	
27	
17	
21	
18	
15	
25	
32	
19	
31	
18	
22	
20	
18	
28	
13	
24	
16	
18	
26	
15	
19	
22	
23	
17	
19	
15	
19	
16	
15	
21	
24	
23	
24	
21	
17	
22	
18	
21	
25	
18	
19	
18	
23	
24	
23	
12	
25	
16	
30	
20	
23	
16	
19	
19	
18	
26	
39	
18	
27	
26	
25	
21	
20	
15	
15	
14	
17	
21	
28	
16	
21	
13	
23	
17	
14	
16	
15	
17	
24	
16	
24	
40	
17	
20	
16	
18	
21	
20	
23	
16	
17	
16	
16	
20	
24	
23	
24	
23	
19	
24	
12	
23	
16	
22	
25	
24	
10	
15	
16	
21	
12	
19	
19	
23	
12	
21	
16	
22	
21	
22	
20	
23	
16	
25	
16	
17	
22	
22	
14	
15	
25	
19	
17	
18	
15	
21	
18	
17	
15	
19	
18	
19	
21	
27	
16	
20	
22	
17	
22	
21	
20	
14	
19	
22	
27	
25	
19	
19	
19	
23	
20	
14	
10	
17	
15	
16	
18	
18	
16	
13	
23	
23	
17	
12	
16	
23	
21	
21	
24	
19	
14	
18	
26	
13	
18	
22	
11	
32	
19	
14	
21	
20	
25	
14	
14	
23	
20	
21	
16	
25	
13	
14	
22	
18	
21	
24	
23	
15	
17	
17	
23	
18	
13	
13	
30	
18	
15	
19	
13	
16	
24	
25	
21	
14	
15	
18	
11	
22	
16	
10	
15	
24	
18	
16	
8	
27	
15	
23	
20	
19	
21	
20	
21	
21	
19	
20	
23	
22	
14	
15	
25	
15	
18	
15	
20	
25	
19	
15	
22	
15	
18	
21	
19	
19	
13	
18	
16	
21	
13	
10	
16	
13	
16	
21	
15	
13	
18	
19	
19	
23	
12	
16	
11	
14	
13	
18	
14	
13	
14	
15	
18	
17	
18	
20	
22	
20	
23	
19	
16	
19	
14	
14	
14	
20	
20	
18	
22	
8	
19	
17	
14	
25	
11	
17	
15	
18	
15	
12	
20	
17	
14	
18	
23	
13	
7	
18	
15	
12	
12	
16	
11	
10	
12	
17	
5	
24	
17	
13	
16	
12	
18	
15	
18	
15	
21	
23	
12	
16	
13	
14	
23	
19	
18	
15	
16	
14	
13	
22	
14	
17	
13	
17	
22	
15	
9	
22	
16	
11	
18	
14	
17	
18	
21	
14	
10	
16	
13	
14	
15	
11	
18	
23	
16	
13	
18	
19	
13	
20	
13	
16	
16	
14	
19	
11	
13	
10	
18	
13	
18	
19	
13	
22	
16	
14	
10	
17	
23	
13	
14	
18	
12	
20	
15	
20	
17	
13	
20	
19	
17	
17	
13	
14	
18	
15	
18	
15	
11	
21	
28	
20	
15	
17	
20	
13	
13	
15	
16	
16	
11	
19	
18	
15	
11	
18	
13	
17	
9	
10	
12	
11	
13	
10	
13	
20	
19	
12	
15	
15	
19	
20	
13	
14	
15	
16	
15	
8	
15	
18	
19	
14	
20	
15	
9	
18	
13	
15	
8	
12	
15	
13	
18	
19	
9	
11	
12	
10	
16	
13	
10	
20	
19	
12	
15	
14	
16	
14	
16	
8	
13	
11	
15	
18	
17	
11	
17	
11	
15	
18	
15	
15	
11	
18	
13	
11	
6	
18	
14	
15	
11	
11	
15	
6	
9	
10	
7	
19	
12	
12	
14	
12	
15	
15	
11	
18	
15	
17	
9	
16	
20	
11	
9	
14	
20	
17	
17	
6	
15	
15	
19	
10	
10	
16	
9	
17	
18	
18	
14	
20	
20	
9	
23	
18	
20	
11	
12	
13	
13	
7	
10	
15	
11	
13	
12	
11	
10	
17	
13	
10	
14	
10	
16	
16	
9	
12	
12	
14	
16	
8	
12	
8	
9	
16	
14	
9	
15	
10	
15	
11	
10	
13	
8	
12	
15	
15	
12	
7	
14	
6	
12	
13	
13	
15	
12	
11	
18	
17	
16	
22	
11	
11	
15	
12	
9	
14	
4	
16	
9	
12	
12	
10	
15	
9	
17	
15	
13	
20	
18	
20	
10	
14	
10	
12	
12	
15	
14	
10	
12	
15	
19	
15	
13	
8	
13	
12	
6	
13	
12	
14	
13	
6	
11	
13	
13	
15	
12	
9	
6	
8	
12	
16	
7	
8	
6	
6	
12	
20	
9	
19	
10	
14	
18	
15	
17	
8	
14	
15	
11	
20	
11	
10	
17	
16	
16	
7	
16	
4	
6	
12	
17	
14	
12	
11	
11	
17	
9	
7	
11	
12	
13	
7	
14	
13	
20	
14	
20	
10	
12	
10	
9	
13	
8	
14	
13	
12	
13	
15	
10	
13	
8	
10	
12	
10	
11	
12	
10	
16	
11	
13	
12	
15	
5	
10	
16	
14	
10	
13	
14	
7	
14	
15	
7	
16	
13	
5	
14	
13	
7	
13	
10	
9	
10	
12	
21	
9	
11	
13	
15	
10	
15	
7	
15	
18	
9	
13	
8	
11	
16	
15	
9	
3	
14	
7	
9	
12	
11	
10	
11	
12	
12	
10	
8	
14	
13	
15	
12	
24	
9	
12	
12	
10	
14	
10	
14	
14	
12	
9	
12	
9	
9	
13	
10	
10	
10	
8	
11	
8	
9	
8	
8	
15	
9	
10	
11	
11	
10	
9	
9	
12	
13	
11	
11	
15	
9	
8	
9	
9	
11	
10	
9	
8	
13	
8	
14	
12	
14	
11	
13	
4	
12	
6	
21	
9	
8	
8	
12	
9	
14	
14	
12	
16	
16	
8	
12	
12	
11	
11	
13	
12	
11	
12	
7	
16	
12	
9	
8	
10	
13	
12	
10	
3	
9	
12	
11	
16	
8	
15	
10	
8	
16	
9	
8	
7	
11	
6	
10	
12	
16	
13	
10	
9	
7	
6	
9	
16	
5	
7	
9	
12	
5	
12	
12	
10	
18	
14	
9	
14	
9	
1	
11	
16	
9	
14	
7	
6	
8	
12	
13	
16	
4	
12	
8	
16	
12	
15	
12	
6	
10	
9	
8	
9	
8	
12	
14	
11	
7	
13	
10	
8	
6	
13	
14	
14	
9	
14	
12	
14	
18	
7	
8	
16	
6	
7	
15	
11	
9	
10	
10	
5	
7	
6	
6	
13	
10	
11	
8	
8	
9	
12	
13	
11	
11	
11	
8	
8	
11	
12	
15	
7	
17	
8	
7	
10	
12	
10	
9	
7	
3	
9	
11	
8	
11	
13	
6	
10	
4	
10	
7	
12	
9	
15	
10	
7	
7	
9	
7	
13	
13	
12	
11	
7	
11	
12	
9	
12	
7	
7	
14	
6	
11	
7	
10	
6	
8	
6	
4	
12	
13	
11	
7	
4	
14	
9	
5	
7	
11	
11	
13	
12	
11	
10	
7	
6	
6	
9	
4	
12	
11	
10	
11	
8	
10	
12	
10	
9	
9	
9	
11	
8	
12	
11	
8	
14	
9	
8	
12	
10	
8	
6	
8	
8	
12	
15	
13	
9	
9	
9	
14	
9	
10	
11	
9	
11	
8	
10	
13	
7	
9	
13	
9	
8	
12	
15	
10	
10	
16	
7	
7	
14	
8	
6	
5	
10	
14	
13	
13	
14	
17	
14	
5	
9	
13	
5	
10	
8	
8	
9	
7	
12	
4	
10	
11	
10	
12	
5	
10	
11	
9	
7	
12	
4	
10	
13	
17	
10	
3	
8	
9	
11	
6	
11	
16	
9	
5	
7	
8	
8	
11	
12	
9	
10	
12	
6	
11	
16	
10	
7	
5	
7	
7	
8	
13	
7	
7	
12	
12	
15	
9	
8	
6	
15	
11	
10	
9	
9	
8	
4	
16	
12	
6	
15	
5	
10	
2	
19	
8	
5	
3	
12	
5	
9	
11	
12	
8	
10	
8	
7	
4	
14	
7	
12	
9	
7	
10	
8	
13	
10	
10	
11	
3	
8	
8	
8	
7	
6	
9	
8	
9	
11	
8	
4	
4	
4	
9	
8	
10	
10	
5	
6	
8	
0	
12	
8	
8	
11	
9	
10	
19	
9	
2	
7	
14	
8	
6	
5	
6	
9	
11	
11	
9	
12	
10	
5	
8	
6	
5	
8	
12	
9	
6	
9	
12	
12	
11	
9	
8	
8	
3	
4	
10	
3	
10	
11	
9	
8	
6	
11	
4	
6	
13	
7	
8	
7	
9	
15	
11	
8	
13	
10	
8	
11	
12	
11	
6	
9	
7	
8	
13	
9	
7	
6	
2	
14	
7	
11	
9	
12	
9	
8	
5	
8	
9	
10	
7	
11	
11	
9	
8	
4	
7	
6	
10	
7	
7	
8	
7	
8	
6	
15	
6	
6	
9	
11	
3	
8	
5	
6	
6	
9	
7	
7	
12	
7	
11	
7	
5	
13	
7	
6	
10	
5	
8	
10	
6	
11	
10	
11	
9	
14	
3	
10	
11	
8	
4	
6	
8	
12	
8	
11	
15	
5	
7	
5	
4	
6	
5	
12	
7	
5	
5	
9	
6	
4	
9	
8	
9	
6	
4	
6	
3	
10	
13	
10	
4	
8	
12	
12	
4	
8	
9	
6	
13	
9	
12	
9	
14	
7	
4	
12	
8	
12	
7	
6	
3	
10	
10	
10	
4	
7	
6	
8	
7	
7	
7	
12	
6	
10	
7	
3	
10	
6	
10	
9	
8	
4	
9	
7	
9	
12	
9	
7	
7	
4	
5	
4	
9	
7	
6	
8	
15	
7	
5	
10	
8	
7	
4	
10	
8	
10	
8	
7	
12	
3	
13	
6	
7	
6	
9	
6	
6	
8	
3	
5	
4	
6	
7	
8	
2	
10	
9	
6	
5	
3	
7	
6	
12	
6	
7	
13	
8	
11	
10	
6	
11	
11	
6	
7	
9	
4	
7	
9	
10	
7	
9	
8	
6	
2	
7	
4	
12	
7	
11	
7	
8	
4	
7	
6	
5	
6	
4	
8	
14	
5	
10	
8	
9	
11	
12	
7	
7	
6	
9	
10	
4	
4	
7	
9	
7	
4	
7	
6	
8	
5	
5	
7	
12	
8	
3	
4	
4	
6	
12	
3	
8	
7	
5	
6	
12	
5	
5	
9	
7	
9	
3	
10	
11	
3	
4	
8	
10	
9	
9	
6	
3	
6	
12	
7	
4	
3	
12	
2	
11	
6	
7	
6	
4	
5	
9	
7	
6	
5	
9	
8	
5	
8	
5	
10	
7	
6	
1	
4	
12	
5	
8	
6	
9	
8	
4	
9	
8	
6	
12	
6	
5	
7	
6	
7	
2	
4	
11	
5	
5	
4	
13	
12	
4	
6	
8	
11	
5	
7	
5	
5	
8	
14	
4	
5	
5	
6	
4	
10	
6	
10	
9	
5	
5	
10	
3	
5	
8	
7	
5	
9	
8	
8	
10	
1	
6	
12	
13	
4	
6	
7	
5	
5	
8	
7	
10	
8	
7	
6	
7	
12	
7	
5	
5	
4	
12	
2	
4	
14	
5	
4	
7	
9	
9	
8	
8	
8	
6	
5	
5	
3	
5	
3	
5	
3	
4	
3	
7	
7	
8	
3	
11	
5	
5	
6	
7	
9	
7	
9	
9	
12	
5	
6	
9	
3	
6	
6	
9	
7	
8	
6	
7	
4	
2	
5	
7	
5	
6	
6	
12	
3	
7	
6	
7	
5	
2	
1	
7	
8	
7	
7	
10	
3	
9	
7	
11	
8	
6	
4	
10	
5	
9	
8	
4	
4	
4	
6	
5	
8	
11	
5	
7	
11	
4	
4	
3	
8	
11	
7	
7	
1	
6	
8	
6	
8	
6	
9	
14	
4	
6	
3	
9	
7	
8	
5	
7	
6	
5	
10	
4	
7	
5	
8	
4	
9	
3	
6	
5	
5	
7	
4	
5	
7	
4	
5	
6	
8	
5	
4	
2	
5	
6	
6	
5	
6	
2	
12	
7	
3	
7	
4	
4	
6	
4	
3	
8	
6	
9	
9	
9	
12	
7	
8	
6	
3	
2	
7	
9	
10	
7	
6	
11	
3	
3	
7	
7	
10	
6	
9	
6	
6	
9	
6	
2	
6	
8	
5	
9	
5	
7	
9	
10	
8	
4	
4	
7	
5	
5	
10	
9	
6	
3	
5	
6	
8	
10	
6	
3	
6	
9	
10	
6	
5	
7	
8	
4	
9	
2	
4	
8	
7	
12	
5	
8	
8	
5	
3	
6	
3	
6	
5	
5	
1	
5	
7	
10	
11	
7	
2	
5	
3	
8	
1	
7	
8	
4	
4	
3	
5	
4	
5	
9	
3	
5	
3	
8	
7	
8	
5	
10	
3	
3	
4	
5	
5	
5	
4	
9	
7	
6	
3	
6	
5	
7	
9	
5	
4	
6	
5	
6	
4	
9	
7	
2	
8	
10	
6	
2	
5	
3	
4	
5	
4	
7	
2	
4	
4	
5	
6	
5	
10	
3	
7	
4	
8	
4	
6	
6	
4	
7	
8	
4	
5	
13	
6	
2	
9	
4	
10	
11	
6	
9	
5	
6	
3	
6	
5	
6	
4	
6	
4	
5	
5	
1	
9	
6	
3	
5	
7	
6	
6	
3	
7	
7	
3	
6	
3	
5	
10	
5	
4	
8	
8	
3	
9	
10	
4	
5	
5	
6	
6	
8	
10	
5	
4	
4	
6	
2	
5	
2	
7	
3	
7	
6	
9	
5	
1	
4	
4	
11	
7	
6	
8	
11	
4	
4	
5	
6	
3	
3	
5	
4	
3	
2	
2	
5	
7	
7	
4	
8	
5	
7	
3	
5	
9	
14	
7	
9	
8	
8	
4	
4	
3	
4	
7	
7	
7	
4	
7	
7	
4	
6	
3	
4	
5	
7	
8	
5	
4	
4	
6	
6	
4	
8	
9	
4	
6	
5	
5	
5	
2	
7	
2	
7	
8	
5	
8	
6	
7	
10	
5	
5	
5	
8	
6	
8	
3	
7	
5	
5	
4	
4	
6	
5	
5	
5	
9	
4	
2	
7	
5	
5	
5	
8	
7	
6	
5	
4	
9	
5	
4	
6	
2	
7	
5	
7	
0	
3	
6	
7	
5	
5	
5	
4	
6	
8	
6	
7	
3	
2	
4	
4	
2	
2	
5	
3	
6	
8	
5	
2	
5	
4	
5	
8	
8	
2	
4	
9	
10	
5	
1	
1	
10	
4	
3	
5	
11	
4	
9	
5	
7	
4	
4	
3	
3	
7	
3	
3	
6	
1	
10	
1	
9	
5	
6	
6	
5	
8	
4	
7	
6	
6	
4	
2	
7	
6	
7	
9	
7	
3	
4	
2	
6	
8	
6	
6	
5	
6	
1	
6	
5	
9	
7	
6	
2	
3	
5	
5	
1	
8	
7	
4	
7	
5	
4	
1	
3	
7	
6	
5	
5	
3	
6	
5	
4	
3	
7	
9	
4	
4	
2	
2	
5	
2	
7	
6	
5	
2	
4	
3	
7	
3	
2	
6	
4	
1	
8	
0	
9	
6	
7	
0	
7	
2	
4	
3	
6	
4	
3	
4	
5	
3	
4	
6	
3	
6	
5	
3	
1	
4	
4	
6	
4	
5	
5	
5	
6	
6	
3	
6	
1	
9	
6	
5	
8	
4	
5	
8	
3	
4	
2	
6	
3	
5	
6	
6	
2	
1	
9	
11	
6	
6	
5	
0	
8	
3	
0	
3	
10	
4	
5	
4	
3	
6	
6	
8	
8	
3	
3	
4	
8	
2	
3	
5	
7	
6	
3	
4	
8	
11	
5	
8	
6	
2	
7	
7	
6	
6	
9	
2	
3	
3	
7	
1	
4	
10	
4	
5	
8	
6	
5	
8	
5	
5	
9	
3	
3	
2	
3	
3	
3	
6	
3	
4	
6	
7	
3	
5	
6	
4	
5	
7	
9	
2	
5	
4	
10	
9	
9	
4	
8	
5	
3	
8	
7	
5	
5	
3	
6	
3	
8	
5	
1	
3	
3	
4	
4	
7	
2	
6	
1	
7	
5	
7	
0	
7	
3	
3	
6	
6	
5	
3	
2	
3	
5	
4	
1	
3	
2	
2	
6	
1	
3	
3	
8	
2	
5	
4	
6	
5	
1	
5	
4	
3	
4	
7	
6	
7	
3	
3	
6	
1	
7	
7	
4	
10	
2	
6	
3	
5	
3	
3	
7	
5	
7	
13	
4	
4	
5	
5	
6	
3	
1	
3	
5	
5	
6	
3	
1	
3	
5	
6	
3	
7	
6	
4	
7	
3	
4	
4	
7	
8	
4	
5	
3	
6	
5	
6	
11	
4	
1	
5	
7	
4	
4	
6	
5	
3	
3	
4	
4	
6	
5	
2	
3	
4	
1	
2	
6	
3	
7	
2	
4	
12	
1	
5	
3	
1	
4	
3	
5	
4	
6	
5	
10	
2	
5	
4	
8	
3	
3	
3	
2	
3	
4	
2	
7	
5	
5	
3	
7	
4	
3	
3	
6	
4	
4	
3	
8	
6	
5	
2	
3	
6	
1	
4	
7	
1	
4	
2	
3	
1	
5	
3	
2	
6	
4	
5	
5	
6	
2	
1	
5	
3	
6	
3	
3	
3	
4	
8	
3	
6	
2	
1	
5	
5	
4	
5	
7	
6	
2	
4	
9	
6	
1	
6	
1	
3	
3	
5	
3	
1	
4	
3	
4	
2	
5	
6	
2	
3	
7	
4	
4	
5	
6	
8	
4	
4	
2	
6	
4	
3	
3	
3	
4	
9	
2	
5	
5	
3	
3	
6	
4	
3	
4	
2	
3	
2	
2	
4	
3	
7	
6	
5	
3	
3	
1	
7	
2	
1	
3	
3	
5	
3	
8	
2	
6	
2	
7	
4	
3	
6	
3	
4	
5	
8	
1	
5	
2	
4	
1	
7	
5	
4	
2	
1	
6	
5	
2	
6	
3	
10	
2	
5	
1	
5	
3	
3	
4	
3	
6	
7	
3	
9	
7	
10	
6	
2	
3	
4	
3	
8	
11	
1	
3	
4	
4	
4	
1	
2	
7	
5	
4	
3	
4	
4	
1	
3	
3	
2	
7	
10	
3	
4	
6	
7	
5	
2	
4	
6	
3	
4	
5	
2	
1	
2	
3	
3	
3	
3	
4	
4	
5	
5	
2	
4	
5	
0	
6	
9	
5	
1	
1	
2	
4	
4	
2	
4	
6	
3	
12	
0	
4	
3	
1	
4	
7	
4	
4	
4	
4	
4	
3	
3	
5	
3	
4	
2	
3	
8	
4	
9	
5	
5	
7	
3	
4	
4	
3	
4	
6	
3	
4	
2	
3	
1	
6	
4	
5	
6	
6	
3	
3	
9	
5	
1	
3	
3	
3	
2	
0	
6	
5	
1	
2	
1	
6	
0	
7	
4	
2	
5	
6	
4	
4	
3	
7	
3	
5	
4	
3	
3	
2	
5	
7	
3	
1	
1	
3	
10	
3	
5	
4	
8	
1	
2	
2	
7	
6	
6	
9	
4	
8	
2	
4	
3	
5	
3	
2	
4	
2	
2	
6	
5	
1	
4	
6	
4	
4	
3	
5	
4	
6	
4	
3	
1	
0	
2	
4	
5	
5	
6	
3	
5	
5	
12	
5	
2	
4	
7	
5	
3	
8	
2	
4	
0	
3	
6	
5	
3	
3	
6	
5	
5	
2	
3	
5	
6	
5	
4	
1	
5	
1	
5	
3	
2	
1	
5	
3	
5	
3	
3	
3	
6	
5	
5	
14	
3	
5	
1	
2	
3	
6	
3	
3	
3	
2	
3	
4	
5	
5	
6	
4	
5	
4	
4	
2	
3	
3	
4	
9	
3	
0	
3	
4	
2	
0	
4	
9	
1	
4	
3	
3	
2	
5	
7	
3	
5	
4	
1	
1	
7	
3	
3	
2	
3	
8	
6	
4	
3	
2	
6	
2	
3	
6	
1	
2	
2	
6	
3	
6	
4	
1	
2	
8	
3	
2	
0	
4	
5	
2	
4	
4	
4	
4	
4	
3	
5	
5	
3	
6	
3	
5	
2	
3	
2	
4	
4	
3	
3	
3	
1	
3	
2	
1	
2	
5	
2	
2	
0	
2	
6	
5	
1	
3	
8	
4	
2	
7	
1	
9	
1	
0	
3	
2	
2	
2	
5	
5	
4	
3	
5	
4	
4	
7	
4	
2	
4	
7	
2	
3	
4	
2	
6	
3	
2	
5	
1	
3	
2	
3	
2	
4	
3	
7	
2	
2	
4	
3	
2	
4	
4	
2	
6	
1	
6	
3	
6	
2	
5	
3	
4	
5	
2	
3	
6	
1	
7	
3	
4	
4	
1	
6	
2	
3	
1	
2	
2	
2	
3	
3	
6	
5	
1	
4	
3	
4	
0	
3	
5	
2	
6	
2	
5	
4	
10	
8	
8	
3	
5	
4	
2	
6	
4	
2	
5	
2	
4	
2	
2	
7	
2	
3	
2	
5	
7	
0	
8	
2	
2	
2	
3	
6	
3	
3	
2	
2	
6	
7	
0	
4	
4	
5	
7	
5	
2	
3	
5	
5	
2	
2	
3	
1	
3	
2	
3	
4	
3	
5	
3	
4	
2	
3	
6	
6	
5	
4	
6	
1	
2	
5	
8	
2	
1	
3	
6	
2	
3	
2	
5	
2	
7	
4	
5	
3	
6	
5	
3	
3	
8	
4	
2	
1	
3	
0	
2	
3	
5	
4	
3	
2	
3	
2	
1	
3	
3	
5	
0	
1	
3	
5	
7	
1	
4	
4	
3	
5	
1	
2	
2	
2	
1	
6	
5	
5	
4	
4	
4	
5	
6	
5	
5	
1	
6	
5	
2	
2	
4	
5	
3	
4	
7	
3	
4	
4	
5	
1	
3	
3	
6	
7	
5	
3	
3	
7	
5	
2	
4	
4	
2	
6	
3	
1	
5	
4	
1	
6	
2	
3	
3	
2	
3	
4	
2	
2	
1	
2	
3	
3	
4	
3	
1	
4	
5	
4	
1	
2	
5	
2	
4	
4	
5	
0	
2	
4	
5	
1	
5	
3	
3	
4	
3	
4	
5	
5	
1	
6	
5	
0	
2	
1	
0	
7	
1	
3	
5	
4	
3	
3	
6	
2	
2	
6	
3	
4	
3	
1	
4	
2	
3	
5	
7	
2	
3	
1	
0	
1	
3	
5	
8	
3	
1	
4	
4	
3	
5	
2	
4	
6	
5	
1	
3	
1	
2	
2	
1	
2	
6	
4	
4	
4	
3	
7	
6	
5	
4	
8	
0	
2	
3	
6	
1	
5	
3	
4	
4	
1	
1	
5	
4	
1	
4	
11	
5	
3	
1	
2	
3	
5	
0	
2	
4	
4	
0	
4	
1	
5	
2	
2	
10	
1	
1	
5	
4	
2	
0	
3	
4	
1	
4	
3	
3	
1	
6	
9	
5	
0	
3	
7	
3	
1	
4	
6	
2	
6	
3	
4	
2	
5	
4	
5	
2	
3	
4	
2	
2	
2	
6	
4	
4	
2	
1	
0	
4	
2	
3	
3	
3	
6	
1	
5	
3	
2	
3	
2	
2	
3	
2	
2	
1	
1	
4	
5	
2	
3	
3	
1	
3	
4	
3	
2	
2	
4	
3	
2	
1	
6	
7	
5	
4	
1	
3	
3	
3	
4	
4	
0	
3	
4	
2	
2	
1	
1	
6	
2	
4	
2	
4	
1	
4	
3	
1	
5	
7	
4	
3	
4	
3	
3	
2	
3	
2	
7	
0	
2	
6	
2	
1	
5	
1	
2	
1	
5	
1	
3	
3	
3	
4	
1	
3	
4	
3	
3	
5	
2	
4	
8	
0	
2	
3	
2	
1	
1	
0	
2	
5	
4	
1	
5	
2	
2	
4	
4	
3	
4	
3	
0	
2	
5	
7	
4	
0	
5	
3	
2	
5	
1	
2	
1	
1	
3	
2	
2	
0	
0	
4	
3	
2	
3	
4	
4	
5	
2	
4	
6	
4	
2	
4	
2	
2	
3	
2	
5	
4	
3	
3	
5	
1	
4	
4	
2	
2	
3	
5	
5	
4	
2	
2	
4	
3	
4	
2	
2	
3	
0	
3	
1	
4	
2	
2	
3	
4	
5	
0	
4	
4	
2	
0	
5	
3	
4	
5	
3	
1	
3	
3	
4	
5	
2	
4	
2	
2	
1	
9	
3	
4	
4	
1	
2	
4	
1	
3	
2	
3	
1	
4	
6	
5	
4	
3	
1	
3	
2	
2	
4	
6	
4	
9	
1	
2	
3	
2	
2	
3	
0	
4	
1	
2	
5	
1	
5	
3	
1	
2	
3	
5	
1	
6	
3	
5	
1	
0	
1	
4	
0	
1	
3	
4	
3	
3	
3	
6	
2	
1	
3	
2	
1	
2	
4	
2	
3	
2	
5	
3	
1	
2	
3	
7	
4	
3	
2	
2	
2	
1	
1	
5	
2	
4	
2	
5	
2	
1	
2	
3	
4	
2	
2	
4	
2	
2	
5	
5	
5	
4	
3	
4	
5	
2	
1	
1	
0	
2	
8	
4	
2	
1	
5	
7	
1	
4	
5	
0	
4	
0	
1	
1	
7	
0	
6	
2	
2	
1	
5	
2	
4	
1	
1	
3	
1	
1	
3	
3	
5	
0	
2	
1	
3	
2	
2	
1	
5	
8	
1	
1	
2	
2	
3	
0	
0	
2	
2	
1	
1	
3	
2	
3	
1	
2	
2	
2	
2	
3	
3	
7	
1	
7	
4	
2	
3	
6	
2	
1	
3	
2	
3	
5	
4	
1	
2	
3	
2	
3	
2	
2	
1	
3	
0	
5	
2	
2	
1	
2	
4	
2	
3	
2	
2	
6	
1	
3	
1	
3	
4	
2	
2	
4	
4	
2	
5	
3	
1	
3	
1	
0	
4	
3	
1	
3	
0	
1	
3	
3	
1	
3	
4	
2	
3	
8	
2	
3	
3	
2	
6	
1	
2	
3	
3	
3	
1	
3	
3	
3	
3	
2	
4	
4	
2	
3	
1	
0	
2	
2	
2	
0	
1	
4	
4	
2	
2	
4	
2	
2	
1	
6	
2	
3	
1	
4	
3	
1	
3	
2	
3	
6	
2	
2	
1	
2	
1	
1	
4	
2	
6	
2	
2	
4	
2	
0	
2	
4	
1	
2	
4	
2	
1	
3	
4	
4	
2	
4	
2	
2	
4	
3	
2	
0	
2	
2	
1	
2	
2	
4	
3	
4	
1	
4	
1	
1	
1	
2	
4	
2	
1	
1	
3	
5	
6	
1	
2	
1	
2	
4	
1	
1	
2	
1	
0	
0	
4	
3	
0	
3	
3	
4	
4	
2	
5	
3	
1	
2	
4	
1	
6	
1	
4	
4	
3	
5	
2	
3	
4	
5	
4	
6	
3	
6	
1	
0	
0	
5	
4	
3	
3	
2	
3	
4	
6	
5	
0	
1	
4	
4	
2	
3	
0	
1	
4	
3	
3	
2	
2	
2	
2	
1	
4	
4	
2	
3	
4	
4	
3	
2	
2	
2	
3	
2	
1	
2	
2	
1	
2	
1	
1	
7	
3	
4	
3	
2	
1	
5	
1	
6	
1	
3	
4	
3	
1	
1	
1	
2	
1	
4	
2	
4	
1	
3	
4	
5	
2	
4	
4	
2	
1	
4	
1	
2	
3	
5	
8	
2	
1	
5	
2	
4	
5	
0	
3	
3	
2	
5	
0	
2	
6	
1	
4	
1	
3	
3	
3	
4	
5	
1	
1	
3	
3	
3	
4	
4	
4	
2	
1	
4	
2	
7	
5	
3	
3	
2	
4	
2	
5	
0	
4	
2	
2	
4	
1	
4	
3	
4	
2	
6	
1	
3	
1	
1	
1	
6	
1	
3	
0	
3	
2	
2	
2	
2	
5	
1	
3	
7	
2	
3	
7	
3	
3	
2	
2	
2	
5	
3	
4	
2	
3	
2	
2	
4	
5	
1	
2	
4	
2	
2	
6	
1	
0	
3	
4	
2	
5	
2	
4	
3	
3	
1	
8	
1	
2	
4	
4	
1	
0	
2	
0	
1	
1	
4	
3	
3	
2	
0	
2	
2	
2	
0	
4	
3	
3	
0	
2	
5	
4	
1	
3	
4	
1	
0	
2	
1	
1	
3	
1	
3	
1	
3	
4	
1	
2	
3	
4	
2	
3	
4	
2	
0	
4	
2	
3	
3	
0	
6	
5	
5	
2	
2	
2	
2	
1	
4	
4	
2	
0	
0	
3	
0	
1	
3	
5	
5	
3	
2	
2	
6	
4	
3	
2	
0	
1	
3	
2	
1	
2	
4	
2	
3	
1	
7	
2	
2	
4	
2	
0	
1	
3	
0	
3	
0	
0	
3	
1	
1	
1	
0	
1	
5	
5	
3	
2	
2	
1	
1	
6	
2	
0	
2	
1	
2	
4	
1	
2	
2	
1	
2	
3	
2	
0	
3	
4	
1	
1	
2	
1	
3	
2	
4	
2	
4	
1	
1	
2	
4	
2	
1	
3	
0	
2	
2	
2	
3	
3	
3	
2	
3	
1	
1	
5	
3	
2	
3	
1	
0	
1	
0	
6	
3	
3	
1	
3	
4	
3	
3	
1	
2	
2	
0	
3	
2	
2	
3	
1	
4	
1	
7	
3	
4	
2	
2	
4	
3	
1	
4	
2	
0	
1	
2	
3	
3	
1	
2	
3	
1	
0	
3	
1	
3	
4	
3	
2	
3	
2	
2	
2	
2	
3	
3	
3	
1	
1	
1	
4	
1	
4	
2	
4	
4	
4	
1	
2	
3	
3	
1	
1	
3	
3	
0	
4	
3	
0	
1	
1	
4	
2	
1	
2	
4	
5	
3	
1	
1	
6	
3	
1	
2	
1	
3	
6	
3	
2	
2	
3	
4	
0	
2	
2	
5	
4	
2	
5	
5	
3	
1	
4	
1	
2	
2	
3	
2	
3	
0	
2	
2	
3	
1	
4	
2	
1	
2	
2	
2	
3	
3	
3	
2	
2	
1	
1	
2	
1	
1	
3	
0	
3	
2	
0	
3	
4	
3	
4	
2	
1	
2	
1	
4	
4	
5	
2	
2	
2	
2	
3	
2	
2	
2	
4	
1	
1	
2	
3	
1	
4	
4	
0	
3	
2	
4	
2	
2	
3	
0	
1	
5	
1	
5	
1	
3	
2	
3	
2	
3	
1	
2	
1	
1	
3	
3	
3	
5	
1	
5	
1	
5	
1	
3	
2	
1	
0	
1	
1	
1	
0	
1	
1	
3	
5	
2	
2	
2	
1	
4	
3	
2	
2	
1	
5	
2	
4	
2	
2	
3	
4	
0	
0	
4	
2	
2	
4	
1	
1	
0	
2	
2	
1	
3	
3	
2	
3	
1	
5	
3	
4	
3	
3	
1	
2	
3	
1	
0	
1	
0	
2	
2	
3	
0	
2	
1	
0	
2	
1	
5	
3	
0	
3	
3	
0	
2	
3	
0	
0	
2	
5	
2	
1	
2	
1	
2	
2	
2	
5	
5	
5	
3	
0	
1	
2	
3	
1	
2	
2	
4	
1	
2	
2	
2	
3	
1	
4	
1	
2	
3	
1	
1	
0	
4	
1	
0	
2	
4	
0	
2	
4	
2	
2	
3	
0	
2	
5	
2	
5	
1	
4	
1	
1	
3	
3	
1	
3	
1	
4	
4	
2	
3	
2	
4	
2	
2	
2	
1	
0	
0	
6	
3	
1	
4	
5	
2	
2	
1	
1	
2	
5	
0	
4	
3	
3	
5	
3	
1	
3	
3	
4	
1	
0	
2	
0	
0	
2	
2	
2	
1	
1	
4	
4	
0	
2	
2	
2	
2	
3	
1	
2	
1	
6	
2	
3	
4	
3	
3	
3	
0	
3	
3	
1	
2	
3	
1	
4	
3	
4	
1	
1	
2	
1	
2	
2	
2	
1	
1	
3	
2	
2	
3	
0	
2	
3	
2	
0	
2	
0	
3	
2	
2	
2	
4	
1	
5	
4	
1	
5	
2	
3	
2	
4	
3	
3	
3	
4	
0	
1	
2	
4	
4	
4	
0	
4	
1	
1	
3	
0	
0	
2	
0	
3	
3	
0	
1	
1	
0	
0	
2	
1	
2	
3	
4	
2	
2	
3	
0	
3	
3	
0	
1	
4	
1	
2	
4	
2	
1	
3	
0	
3	
3	
3	
2	
2	
3	
2	
1	
3	
3	
1	
2	
4	
3	
1	
0	
3	
2	
2	
4	
1	
1	
1	
0	
0	
3	
4	
2	
0	
2	
3	
2	
2	
0	
1	
4	
0	
1	
2	
1	
1	
5	
1	
4	
2	
1	
1	
1	
0	
2	
1	
2	
5	
1	
5	
1	
1	
1	
6	
3	
2	
1	
3	
1	
2	
3	
4	
3	
2	
3	
1	
4	
1	
3	
3	
4	
3	
2	
1	
4	
3	
3	
1	
5	
6	
1	
0	
3	
1	
4	
2	
3	
2	
4	
3	
0	
2	
0	
3	
0	
2	
2	
3	
3	
3	
3	
2	
2	
3	
3	
2	
2	
2	
3	
1	
3	
5	
2	
0	
4	
4	
1	
1	
1	
1	
1	
3	
3	
0	
2	
3	
3	
2	
1	
1	
3	
3	
1	
1	
3	
1	
1	
0	
3	
0	
3	
1	
5	
1	
2	
1	
1	
0	
0	
3	
3	
0	
1	
2	
0	
5	
1	
4	
6	
2	
0	
0	
0	
1	
3	
1	
0	
2	
3	
4	
1	
3	
0	
0	
1	
1	
1	
4	
1	
2	
0	
3	
1	
1	
0	
4	
3	
5	
1	
4	
3	
1	
0	
3	
2	
1	
1	
3	
1	
2	
2	
3	
3	
2	
0	
2	
1	
4	
1	
1	
3	
2	
3	
1	
2	
0	
1	
2	
0	
2	
1	
1	
5	
4	
0	
4	
0	
1	
0	
2	
5	
1	
1	
4	
0	
2	
3	
2	
0	
2	
3	
2	
3	
3	
2	
2	
3	
1	
2	
5	
1	
3	
2	
0	
3	
1	
1	
2	
2	
1	
2	
1	
3	
3	
2	
2	
0	
5	
2	
4	
0	
5	
1	
5	
2	
4	
3	
2	
5	
2	
1	
5	
5	
3	
1	
2	
0	
1	
4	
3	
2	
4	
2	
1	
3	
6	
3	
3	
1	
0	
1	
2	
4	
3	
2	
5	
0	
5	
3	
1	
3	
2	
0	
3	
0	
1	
1	
1	
3	
2	
5	
3	
1	
1	
4	
1	
2	
1	
2	
4	
1	
2	
3	
3	
2	
1	
4	
0	
3	
1	
4	
3	
2	
5	
0	
1	
2	
1	
0	
0	
1	
2	
1	
3	
2	
1	
2	
4	
2	
4	
2	
2	
2	
2	
1	
4	
1	
2	
1	
2	
3	
4	
3	
2	
4	
2	
3	
0	
4	
1	
1	
5	
1	
2	
2	
2	
0	
4	
2	
3	
2	
1	
3	
0	
2	
2	
0	
3	
2	
2	
0	
1	
3	
5	
2	
2	
6	
2	
0	
2	
3	
5	
3	
1	
2	
0	
2	
3	
1	
3	
0	
2	
2	
1	
4	
5	
3	
0	
2	
0	
0	
1	
1	
2	
2	
4	
5	
0	
1	
0	
2	
3	
2	
2	
2	
5	
1	
1	
4	
3	
3	
0	
1	
3	
0	
2	
6	
2	
1	
1	
0	
0	
6	
1	
3	
2	
3	
3	
4	
4	
1	
1	
1	
4	
1	
2	
1	
0	
3	
2	
2	
1	
3	
3	
0	
1	
4	
0	
6	
