#PicoHarp 300  Histogram Data			03/27/2023 12:19:22 PM
#channels per curve
15625
#display curve no.
0	
#memory block no.
0	
#ns/channel
0.1280	
#counts
1	
1	
1	
4	
1	
3	
0	
1	
2	
2	
1	
0	
2	
2	
0	
1	
0	
0	
3	
1	
1	
3	
0	
0	
2	
2	
4	
0	
2	
1	
4	
1	
1	
1	
4	
1	
3	
3	
1	
1	
3	
0	
4	
2	
2	
1	
2	
2	
0	
0	
1	
0	
1	
2	
1	
2	
0	
0	
4	
2	
2	
1	
1	
3	
2	
4	
14	
30	
51	
107	
233	
404	
535	
671	
789	
872	
863	
1000	
976	
928	
952	
907	
839	
842	
861	
790	
797	
825	
790	
791	
795	
760	
715	
712	
744	
736	
732	
738	
669	
698	
645	
655	
678	
642	
633	
675	
667	
620	
624	
638	
630	
584	
589	
550	
616	
614	
527	
611	
522	
589	
607	
548	
563	
572	
577	
565	
530	
522	
509	
571	
548	
528	
531	
537	
507	
522	
500	
485	
496	
511	
499	
482	
519	
528	
538	
466	
506	
518	
497	
490	
448	
472	
516	
474	
506	
447	
448	
437	
442	
452	
461	
504	
444	
451	
457	
453	
423	
410	
445	
445	
439	
442	
412	
439	
444	
435	
447	
439	
426	
416	
424	
411	
471	
397	
414	
389	
401	
377	
390	
390	
398	
418	
389	
378	
405	
418	
379	
397	
410	
400	
379	
372	
382	
373	
377	
392	
388	
382	
412	
384	
362	
382	
346	
369	
397	
378	
415	
371	
365	
355	
344	
382	
385	
337	
333	
340	
333	
366	
350	
338	
377	
353	
343	
372	
368	
330	
337	
361	
328	
341	
383	
299	
333	
343	
322	
321	
377	
324	
302	
339	
346	
342	
333	
374	
331	
343	
338	
357	
349	
343	
336	
314	
323	
324	
355	
336	
297	
339	
357	
321	
304	
317	
311	
294	
295	
305	
325	
339	
267	
313	
305	
323	
308	
303	
293	
276	
285	
304	
279	
309	
291	
319	
282	
275	
310	
275	
287	
306	
296	
305	
302	
307	
280	
321	
301	
304	
299	
319	
295	
259	
279	
295	
327	
292	
283	
301	
292	
282	
263	
277	
262	
272	
277	
255	
266	
288	
245	
276	
273	
265	
279	
292	
266	
241	
275	
264	
242	
275	
252	
271	
271	
252	
249	
256	
297	
252	
257	
212	
249	
258	
246	
255	
291	
263	
231	
265	
240	
252	
277	
246	
279	
257	
259	
232	
262	
240	
252	
269	
253	
254	
263	
244	
242	
210	
243	
266	
259	
215	
260	
250	
233	
276	
249	
246	
210	
225	
226	
238	
257	
207	
238	
208	
228	
228	
241	
227	
200	
231	
217	
227	
240	
210	
230	
229	
203	
223	
244	
215	
219	
212	
247	
236	
206	
218	
229	
241	
225	
217	
219	
212	
215	
226	
243	
210	
223	
212	
225	
250	
185	
204	
221	
206	
216	
203	
241	
208	
215	
196	
230	
204	
196	
215	
224	
204	
196	
207	
207	
203	
213	
231	
202	
192	
193	
223	
199	
206	
187	
167	
198	
224	
203	
236	
206	
194	
216	
205	
199	
210	
208	
198	
219	
189	
167	
213	
210	
205	
172	
189	
170	
189	
195	
183	
167	
189	
183	
193	
196	
188	
193	
198	
171	
200	
192	
199	
183	
151	
193	
214	
188	
199	
185	
175	
145	
205	
181	
174	
166	
183	
192	
186	
182	
175	
177	
190	
197	
130	
193	
191	
175	
174	
175	
177	
195	
187	
174	
200	
174	
169	
186	
164	
167	
160	
185	
184	
178	
175	
200	
139	
138	
159	
181	
157	
160	
165	
184	
168	
183	
181	
166	
146	
186	
152	
181	
153	
198	
154	
179	
155	
165	
164	
155	
170	
160	
174	
158	
173	
165	
147	
169	
150	
157	
174	
137	
146	
178	
156	
169	
167	
167	
165	
155	
179	
176	
141	
142	
140	
143	
136	
144	
175	
144	
157	
161	
158	
152	
177	
167	
185	
176	
142	
137	
165	
142	
155	
140	
162	
140	
135	
153	
156	
132	
129	
154	
154	
158	
151	
160	
147	
162	
139	
148	
160	
153	
149	
155	
159	
150	
142	
130	
139	
133	
164	
129	
141	
146	
162	
140	
142	
144	
160	
153	
161	
140	
135	
150	
149	
138	
157	
147	
141	
135	
134	
130	
135	
141	
135	
139	
127	
132	
143	
152	
153	
139	
143	
126	
119	
147	
137	
119	
145	
137	
126	
134	
115	
142	
131	
150	
122	
134	
133	
142	
146	
130	
111	
117	
139	
128	
112	
159	
130	
126	
118	
143	
121	
143	
137	
135	
131	
143	
127	
171	
142	
132	
131	
133	
116	
117	
111	
121	
130	
123	
127	
126	
122	
126	
131	
131	
120	
143	
126	
132	
132	
115	
132	
150	
117	
139	
118	
127	
137	
113	
140	
131	
123	
126	
124	
116	
121	
131	
127	
137	
106	
111	
129	
125	
119	
103	
113	
124	
110	
144	
93	
114	
138	
129	
87	
119	
128	
102	
101	
124	
152	
119	
127	
120	
117	
102	
102	
95	
124	
103	
126	
124	
140	
109	
114	
121	
104	
120	
121	
94	
113	
126	
115	
125	
112	
104	
88	
107	
116	
92	
124	
108	
119	
103	
107	
119	
109	
102	
97	
113	
127	
113	
105	
101	
116	
132	
110	
107	
115	
109	
118	
106	
113	
117	
105	
101	
115	
93	
126	
107	
95	
104	
93	
98	
97	
112	
122	
108	
131	
86	
109	
123	
100	
107	
111	
88	
87	
107	
104	
100	
123	
98	
87	
95	
97	
113	
111	
99	
108	
94	
108	
109	
101	
92	
101	
111	
89	
119	
106	
115	
97	
97	
98	
113	
103	
105	
84	
101	
89	
117	
108	
92	
97	
98	
82	
104	
93	
93	
114	
98	
95	
93	
85	
110	
106	
106	
91	
96	
90	
112	
102	
90	
86	
110	
98	
108	
108	
113	
95	
84	
113	
88	
105	
101	
75	
125	
88	
92	
90	
97	
89	
119	
82	
100	
75	
94	
78	
121	
90	
105	
108	
88	
101	
113	
78	
87	
80	
102	
101	
87	
96	
91	
105	
92	
102	
90	
101	
77	
101	
81	
96	
87	
107	
82	
108	
98	
95	
86	
82	
96	
94	
101	
103	
112	
95	
96	
89	
97	
84	
90	
87	
79	
93	
96	
99	
96	
87	
76	
91	
80	
101	
71	
86	
84	
94	
105	
82	
79	
78	
75	
95	
82	
105	
77	
77	
99	
86	
78	
85	
87	
92	
93	
71	
88	
97	
99	
78	
85	
94	
84	
86	
88	
90	
92	
93	
71	
83	
79	
97	
91	
90	
84	
82	
100	
95	
82	
90	
66	
75	
77	
81	
79	
87	
76	
65	
64	
75	
82	
104	
73	
71	
74	
77	
82	
73	
78	
90	
70	
80	
84	
67	
75	
78	
92	
83	
81	
76	
92	
81	
76	
63	
75	
97	
97	
79	
78	
68	
84	
82	
76	
90	
91	
77	
72	
92	
67	
82	
91	
87	
104	
85	
66	
73	
80	
73	
90	
70	
76	
73	
91	
62	
80	
75	
87	
80	
87	
73	
63	
77	
61	
80	
75	
85	
87	
84	
84	
69	
78	
88	
81	
80	
69	
70	
91	
82	
84	
79	
58	
91	
62	
75	
77	
76	
79	
79	
77	
72	
76	
75	
88	
66	
73	
89	
63	
76	
85	
68	
73	
64	
71	
84	
76	
73	
66	
87	
85	
51	
71	
67	
76	
76	
77	
75	
64	
73	
58	
69	
77	
81	
79	
80	
69	
75	
68	
82	
71	
64	
81	
59	
67	
74	
72	
75	
67	
57	
75	
67	
87	
69	
60	
54	
67	
85	
76	
65	
66	
68	
55	
81	
91	
64	
64	
74	
63	
75	
76	
74	
79	
60	
72	
71	
71	
73	
67	
75	
71	
62	
57	
71	
65	
74	
65	
72	
72	
70	
67	
66	
72	
71	
77	
81	
72	
68	
71	
67	
44	
67	
78	
65	
53	
64	
74	
68	
62	
69	
69	
63	
71	
65	
65	
74	
62	
65	
50	
82	
63	
51	
58	
77	
77	
68	
67	
79	
64	
75	
54	
70	
63	
70	
75	
65	
68	
64	
64	
65	
50	
58	
62	
67	
67	
51	
71	
57	
71	
69	
71	
68	
68	
72	
69	
61	
57	
67	
69	
69	
50	
53	
61	
63	
64	
67	
76	
59	
56	
62	
70	
68	
57	
62	
46	
92	
48	
67	
63	
68	
64	
65	
62	
62	
58	
69	
58	
58	
68	
44	
57	
74	
63	
63	
54	
47	
72	
71	
53	
54	
75	
45	
73	
55	
59	
55	
60	
45	
58	
54	
66	
70	
62	
68	
62	
58	
67	
55	
64	
58	
43	
66	
58	
45	
54	
69	
68	
57	
71	
56	
67	
60	
59	
54	
47	
55	
58	
69	
52	
63	
76	
73	
59	
60	
56	
60	
57	
64	
51	
51	
52	
57	
63	
62	
59	
57	
60	
65	
47	
41	
48	
60	
60	
71	
58	
51	
67	
51	
44	
59	
51	
45	
57	
68	
55	
58	
65	
60	
65	
55	
46	
65	
54	
53	
57	
48	
49	
73	
57	
57	
54	
48	
52	
53	
42	
54	
57	
64	
57	
52	
50	
42	
62	
78	
51	
64	
54	
45	
52	
55	
53	
43	
43	
65	
53	
57	
46	
63	
55	
57	
50	
52	
41	
45	
50	
66	
65	
62	
69	
54	
57	
37	
62	
54	
50	
60	
47	
45	
59	
51	
50	
46	
40	
49	
53	
57	
60	
62	
46	
56	
46	
53	
51	
60	
44	
52	
44	
55	
53	
57	
48	
63	
36	
44	
62	
57	
51	
59	
51	
44	
63	
47	
56	
48	
53	
65	
48	
71	
56	
58	
50	
49	
55	
39	
43	
38	
46	
44	
46	
52	
49	
57	
50	
48	
51	
64	
40	
51	
59	
51	
47	
54	
46	
52	
56	
45	
43	
47	
51	
58	
46	
60	
42	
45	
56	
61	
43	
44	
57	
46	
43	
38	
53	
52	
43	
52	
51	
56	
55	
58	
54	
48	
42	
51	
61	
51	
41	
38	
50	
43	
43	
53	
53	
59	
56	
45	
35	
45	
53	
46	
36	
38	
49	
52	
52	
54	
48	
67	
39	
42	
42	
50	
51	
49	
55	
48	
44	
43	
50	
52	
48	
47	
46	
48	
49	
59	
47	
45	
62	
51	
50	
51	
41	
63	
37	
44	
43	
38	
50	
34	
43	
57	
31	
25	
50	
48	
44	
41	
41	
49	
48	
45	
52	
35	
63	
42	
37	
49	
43	
41	
47	
54	
46	
43	
51	
44	
42	
57	
46	
46	
52	
35	
38	
36	
33	
45	
35	
48	
39	
48	
59	
41	
44	
46	
61	
48	
45	
51	
49	
46	
32	
39	
41	
43	
38	
47	
58	
47	
42	
45	
46	
40	
35	
42	
36	
43	
50	
40	
40	
44	
47	
38	
38	
44	
40	
35	
59	
47	
48	
42	
44	
37	
45	
51	
37	
40	
45	
43	
41	
37	
45	
38	
44	
41	
51	
40	
36	
41	
45	
55	
46	
42	
45	
44	
32	
52	
45	
42	
36	
30	
52	
37	
34	
40	
36	
43	
43	
39	
46	
46	
42	
57	
44	
37	
47	
37	
42	
48	
41	
49	
42	
51	
41	
53	
49	
49	
32	
49	
43	
54	
43	
59	
39	
30	
41	
45	
45	
27	
32	
38	
44	
41	
41	
45	
32	
34	
39	
51	
35	
34	
33	
41	
45	
31	
45	
36	
40	
39	
38	
44	
43	
36	
30	
53	
40	
38	
40	
38	
41	
50	
36	
32	
47	
47	
55	
33	
39	
44	
30	
36	
53	
36	
44	
39	
48	
33	
49	
41	
46	
44	
51	
39	
49	
35	
35	
29	
38	
37	
49	
39	
39	
40	
47	
27	
36	
34	
45	
36	
47	
33	
43	
46	
46	
38	
45	
33	
48	
31	
45	
51	
35	
47	
43	
46	
41	
37	
33	
36	
43	
33	
43	
44	
31	
44	
39	
43	
37	
37	
51	
34	
33	
41	
44	
35	
51	
45	
40	
37	
31	
48	
42	
38	
41	
39	
32	
30	
46	
24	
42	
40	
39	
40	
31	
35	
28	
41	
37	
31	
46	
43	
32	
35	
37	
28	
37	
35	
33	
40	
46	
32	
39	
29	
41	
40	
37	
36	
27	
43	
33	
30	
30	
39	
36	
34	
32	
30	
34	
37	
43	
37	
37	
37	
32	
35	
43	
31	
47	
37	
37	
35	
38	
41	
42	
43	
37	
39	
29	
37	
39	
35	
41	
44	
36	
51	
43	
40	
39	
26	
36	
35	
40	
33	
31	
43	
37	
41	
28	
37	
28	
36	
33	
37	
37	
31	
38	
31	
44	
34	
42	
44	
33	
28	
46	
41	
37	
30	
39	
46	
26	
39	
37	
33	
34	
30	
31	
33	
38	
49	
36	
34	
33	
35	
37	
30	
36	
34	
32	
39	
25	
42	
27	
47	
42	
33	
35	
38	
35	
36	
37	
32	
27	
16	
33	
44	
45	
36	
22	
37	
39	
36	
35	
38	
38	
25	
27	
39	
33	
38	
33	
26	
24	
29	
26	
32	
36	
40	
38	
30	
37	
29	
34	
25	
26	
33	
33	
35	
40	
29	
43	
31	
30	
29	
28	
35	
36	
49	
32	
37	
43	
38	
39	
38	
31	
31	
30	
41	
32	
30	
36	
31	
32	
30	
28	
27	
20	
28	
30	
24	
32	
39	
45	
29	
32	
36	
33	
38	
39	
35	
30	
39	
35	
31	
35	
37	
42	
30	
42	
25	
36	
39	
37	
28	
27	
33	
25	
42	
27	
36	
30	
31	
33	
38	
34	
25	
41	
30	
40	
28	
28	
27	
30	
33	
35	
34	
38	
34	
32	
27	
38	
37	
39	
38	
30	
28	
39	
35	
37	
36	
30	
33	
27	
37	
25	
23	
33	
34	
38	
30	
38	
27	
34	
26	
39	
35	
34	
29	
25	
23	
31	
29	
29	
17	
23	
33	
32	
39	
36	
33	
29	
33	
34	
29	
29	
27	
31	
32	
24	
34	
38	
24	
31	
33	
27	
44	
35	
35	
33	
15	
39	
42	
26	
22	
30	
38	
32	
33	
32	
19	
26	
38	
34	
28	
28	
18	
39	
26	
30	
33	
22	
30	
31	
30	
34	
35	
38	
28	
26	
33	
24	
28	
23	
34	
46	
30	
32	
23	
28	
32	
31	
28	
28	
15	
21	
23	
36	
36	
34	
26	
27	
31	
38	
37	
25	
27	
30	
37	
32	
30	
39	
23	
23	
17	
30	
27	
31	
21	
35	
35	
37	
26	
30	
27	
32	
30	
32	
28	
29	
29	
25	
22	
25	
34	
30	
24	
29	
28	
32	
29	
41	
30	
25	
28	
28	
23	
36	
40	
24	
21	
26	
26	
29	
35	
29	
19	
22	
34	
39	
29	
35	
25	
40	
31	
26	
16	
34	
34	
32	
29	
25	
28	
26	
31	
31	
27	
20	
30	
27	
19	
28	
23	
28	
32	
24	
26	
31	
27	
29	
28	
23	
23	
28	
27	
27	
28	
31	
29	
30	
32	
28	
36	
28	
28	
35	
37	
27	
25	
34	
31	
24	
18	
18	
23	
27	
26	
24	
20	
26	
30	
35	
25	
22	
31	
21	
29	
29	
24	
24	
27	
23	
27	
32	
19	
32	
24	
33	
39	
30	
28	
19	
16	
18	
25	
27	
21	
24	
26	
31	
23	
26	
39	
32	
17	
37	
29	
30	
21	
32	
20	
25	
35	
26	
22	
25	
29	
21	
34	
31	
21	
27	
31	
25	
23	
31	
29	
23	
28	
20	
24	
29	
33	
15	
36	
30	
37	
18	
24	
24	
23	
32	
27	
37	
24	
29	
20	
34	
33	
24	
26	
33	
27	
31	
20	
21	
29	
28	
23	
26	
32	
30	
30	
25	
22	
28	
20	
23	
29	
20	
30	
21	
26	
32	
26	
18	
31	
22	
30	
31	
28	
42	
22	
25	
26	
19	
20	
24	
19	
27	
18	
22	
32	
34	
28	
22	
20	
19	
24	
21	
23	
32	
25	
24	
18	
22	
28	
29	
29	
23	
28	
25	
30	
23	
33	
25	
16	
27	
26	
25	
23	
20	
31	
30	
24	
27	
12	
18	
32	
32	
24	
29	
29	
27	
28	
22	
22	
24	
29	
26	
26	
28	
27	
27	
24	
22	
18	
21	
17	
32	
40	
24	
27	
23	
31	
22	
35	
22	
29	
20	
17	
30	
28	
18	
21	
29	
21	
24	
20	
17	
28	
26	
22	
25	
26	
23	
21	
23	
26	
28	
26	
20	
24	
20	
24	
19	
19	
24	
18	
22	
28	
19	
20	
20	
27	
29	
23	
31	
24	
29	
16	
28	
31	
23	
21	
32	
20	
21	
20	
18	
34	
23	
29	
25	
29	
34	
12	
22	
21	
23	
24	
28	
22	
22	
22	
25	
28	
12	
33	
16	
20	
19	
17	
18	
29	
16	
19	
31	
25	
24	
28	
30	
28	
18	
25	
17	
19	
15	
20	
22	
24	
34	
25	
31	
30	
27	
20	
23	
28	
22	
28	
27	
25	
25	
23	
34	
22	
26	
16	
25	
20	
33	
17	
24	
26	
19	
21	
23	
18	
20	
22	
21	
24	
22	
28	
18	
21	
22	
28	
16	
23	
20	
26	
29	
27	
22	
22	
14	
22	
27	
17	
27	
23	
23	
27	
28	
20	
22	
17	
23	
23	
22	
21	
25	
21	
24	
23	
21	
15	
25	
20	
17	
34	
23	
30	
23	
16	
18	
21	
18	
23	
22	
14	
23	
16	
29	
28	
22	
19	
24	
13	
12	
14	
27	
25	
19	
23	
26	
23	
24	
17	
22	
27	
26	
24	
19	
19	
27	
21	
18	
20	
19	
17	
16	
24	
15	
26	
24	
39	
18	
24	
23	
30	
26	
22	
21	
22	
21	
15	
24	
29	
24	
25	
20	
24	
17	
20	
25	
20	
24	
23	
33	
22	
15	
23	
20	
23	
29	
19	
16	
23	
14	
24	
29	
15	
20	
29	
17	
22	
19	
12	
22	
26	
22	
25	
22	
23	
17	
19	
28	
18	
15	
24	
22	
22	
21	
21	
22	
16	
23	
25	
15	
22	
23	
17	
21	
22	
19	
24	
15	
20	
23	
24	
19	
19	
23	
19	
21	
17	
19	
23	
20	
21	
29	
29	
27	
30	
32	
26	
17	
25	
22	
22	
31	
21	
26	
30	
19	
19	
22	
14	
18	
17	
17	
18	
23	
18	
23	
23	
22	
25	
20	
26	
24	
18	
31	
18	
20	
19	
21	
26	
16	
16	
18	
24	
16	
26	
19	
24	
18	
21	
25	
21	
24	
18	
14	
15	
21	
20	
25	
26	
25	
19	
22	
25	
23	
17	
29	
21	
31	
18	
18	
19	
17	
29	
19	
21	
18	
21	
16	
22	
19	
27	
22	
16	
26	
17	
16	
24	
23	
24	
21	
14	
21	
12	
20	
20	
14	
16	
23	
21	
20	
16	
17	
14	
33	
19	
16	
15	
22	
18	
21	
27	
17	
15	
20	
16	
17	
16	
19	
17	
23	
22	
15	
21	
24	
18	
20	
21	
22	
12	
22	
17	
18	
15	
26	
27	
14	
17	
25	
20	
17	
22	
14	
16	
13	
14	
13	
28	
19	
18	
23	
13	
13	
31	
23	
10	
23	
23	
15	
17	
21	
14	
26	
16	
21	
22	
10	
16	
22	
20	
14	
14	
19	
19	
20	
19	
14	
21	
14	
16	
18	
30	
11	
20	
23	
26	
13	
18	
21	
16	
24	
16	
20	
24	
17	
17	
19	
19	
16	
18	
25	
23	
11	
17	
24	
15	
12	
17	
11	
23	
23	
16	
24	
16	
14	
24	
16	
23	
14	
18	
29	
21	
14	
14	
21	
23	
27	
15	
17	
24	
17	
10	
21	
20	
16	
18	
23	
21	
13	
26	
15	
21	
15	
16	
19	
14	
19	
17	
21	
19	
29	
10	
23	
16	
24	
14	
18	
18	
27	
16	
22	
21	
27	
13	
17	
27	
24	
28	
22	
14	
24	
17	
10	
20	
19	
20	
25	
17	
13	
23	
25	
14	
17	
14	
21	
19	
19	
24	
22	
30	
18	
18	
22	
20	
22	
13	
13	
12	
17	
12	
19	
18	
19	
19	
20	
16	
15	
20	
20	
11	
17	
16	
18	
12	
14	
20	
16	
11	
10	
21	
14	
16	
15	
23	
13	
26	
26	
18	
24	
16	
18	
14	
25	
31	
14	
18	
15	
17	
19	
24	
23	
26	
16	
17	
24	
14	
11	
23	
21	
14	
15	
21	
24	
14	
19	
20	
17	
17	
18	
13	
21	
24	
12	
22	
18	
12	
20	
17	
11	
14	
19	
16	
12	
16	
17	
24	
18	
19	
24	
21	
25	
12	
14	
24	
16	
21	
18	
25	
13	
19	
24	
21	
11	
12	
19	
15	
19	
22	
19	
17	
14	
22	
19	
15	
15	
20	
16	
11	
13	
12	
18	
11	
12	
19	
10	
13	
22	
19	
17	
19	
17	
14	
17	
16	
13	
17	
21	
11	
18	
18	
16	
10	
20	
16	
22	
22	
13	
14	
29	
18	
10	
21	
20	
18	
14	
23	
10	
24	
18	
10	
19	
17	
17	
17	
14	
19	
16	
26	
14	
18	
14	
13	
19	
28	
16	
13	
12	
15	
16	
11	
19	
21	
11	
22	
13	
16	
11	
15	
15	
22	
19	
20	
23	
19	
12	
20	
19	
10	
18	
19	
17	
13	
18	
22	
14	
13	
19	
18	
15	
17	
13	
21	
16	
23	
19	
14	
25	
12	
16	
16	
13	
11	
22	
19	
15	
15	
19	
15	
23	
9	
22	
12	
16	
15	
15	
15	
22	
19	
14	
23	
15	
18	
11	
21	
16	
13	
23	
18	
15	
17	
26	
15	
12	
19	
12	
20	
17	
15	
27	
22	
20	
11	
12	
18	
22	
15	
19	
18	
18	
21	
11	
21	
24	
14	
9	
17	
21	
16	
11	
11	
12	
11	
14	
13	
15	
18	
20	
16	
18	
19	
15	
19	
13	
12	
12	
11	
24	
12	
18	
16	
18	
20	
18	
13	
18	
16	
17	
23	
20	
17	
14	
20	
13	
21	
19	
18	
19	
13	
22	
19	
14	
16	
19	
15	
15	
18	
12	
12	
10	
13	
21	
13	
15	
19	
17	
11	
19	
16	
17	
16	
18	
18	
16	
18	
18	
15	
17	
14	
23	
15	
18	
11	
19	
11	
15	
19	
7	
8	
24	
15	
15	
18	
19	
17	
17	
9	
13	
18	
20	
21	
21	
16	
17	
16	
7	
17	
16	
15	
9	
23	
17	
20	
15	
14	
19	
13	
15	
22	
16	
9	
18	
14	
18	
21	
23	
12	
12	
17	
15	
20	
18	
19	
16	
20	
16	
14	
15	
14	
21	
23	
8	
16	
28	
12	
11	
14	
8	
13	
14	
15	
13	
16	
16	
11	
19	
11	
16	
9	
15	
9	
24	
23	
18	
17	
15	
16	
29	
9	
13	
15	
10	
21	
13	
17	
15	
22	
21	
13	
10	
14	
20	
19	
16	
14	
14	
17	
15	
21	
15	
26	
18	
27	
12	
16	
14	
9	
11	
14	
13	
18	
19	
19	
15	
21	
19	
8	
17	
17	
8	
13	
12	
17	
17	
13	
10	
17	
14	
17	
12	
10	
16	
13	
18	
5	
14	
16	
14	
13	
16	
17	
21	
18	
18	
16	
16	
16	
14	
11	
18	
22	
17	
21	
11	
13	
9	
18	
17	
17	
14	
17	
12	
16	
13	
11	
15	
15	
14	
15	
17	
15	
13	
14	
19	
13	
22	
16	
14	
20	
17	
17	
23	
16	
16	
20	
9	
23	
15	
20	
17	
10	
17	
15	
22	
20	
10	
13	
17	
8	
19	
18	
13	
16	
19	
10	
15	
13	
11	
9	
21	
13	
20	
15	
9	
14	
20	
14	
18	
19	
23	
14	
9	
9	
8	
7	
17	
16	
12	
9	
15	
13	
9	
16	
13	
19	
14	
20	
12	
16	
14	
17	
17	
16	
17	
18	
15	
16	
9	
21	
13	
17	
25	
18	
11	
20	
12	
10	
15	
15	
11	
12	
15	
9	
11	
14	
11	
14	
10	
11	
23	
21	
11	
14	
15	
14	
17	
14	
17	
13	
10	
12	
11	
18	
19	
17	
14	
16	
10	
14	
13	
10	
17	
10	
12	
16	
14	
13	
12	
21	
21	
10	
19	
11	
13	
12	
9	
17	
12	
13	
13	
14	
18	
9	
16	
21	
18	
8	
11	
12	
6	
12	
14	
13	
9	
14	
14	
12	
15	
14	
16	
13	
18	
16	
8	
13	
13	
18	
13	
10	
15	
12	
13	
14	
15	
10	
18	
13	
14	
15	
10	
14	
12	
15	
10	
8	
20	
15	
17	
9	
18	
14	
15	
14	
16	
10	
19	
14	
14	
17	
14	
21	
14	
13	
16	
10	
17	
18	
15	
18	
13	
17	
13	
16	
11	
12	
14	
19	
11	
10	
21	
13	
10	
6	
15	
14	
14	
15	
8	
13	
18	
7	
16	
7	
10	
18	
13	
15	
16	
18	
18	
14	
19	
9	
13	
9	
16	
6	
11	
16	
15	
15	
11	
11	
17	
10	
26	
14	
9	
17	
12	
14	
13	
9	
17	
23	
10	
14	
15	
14	
12	
6	
16	
10	
9	
14	
13	
9	
21	
15	
10	
14	
15	
16	
16	
13	
13	
12	
15	
12	
12	
6	
11	
14	
12	
12	
18	
9	
12	
9	
7	
13	
16	
15	
13	
12	
13	
11	
10	
13	
17	
17	
9	
17	
11	
15	
9	
7	
17	
12	
16	
14	
16	
13	
12	
7	
15	
13	
16	
12	
6	
9	
13	
11	
15	
14	
6	
14	
6	
15	
11	
17	
13	
14	
9	
13	
15	
13	
8	
10	
12	
15	
11	
15	
16	
10	
8	
13	
12	
12	
11	
12	
13	
10	
10	
14	
14	
12	
12	
11	
20	
17	
10	
14	
13	
17	
15	
20	
14	
15	
8	
17	
9	
14	
17	
17	
19	
11	
10	
9	
10	
11	
12	
18	
12	
11	
8	
12	
16	
9	
11	
12	
11	
14	
13	
15	
12	
10	
20	
19	
17	
15	
15	
12	
17	
17	
10	
16	
6	
6	
12	
15	
17	
9	
5	
8	
12	
16	
9	
9	
14	
10	
14	
14	
11	
8	
12	
9	
15	
16	
13	
14	
9	
11	
14	
10	
14	
13	
7	
11	
14	
9	
6	
16	
16	
22	
7	
7	
13	
12	
13	
8	
11	
19	
10	
12	
8	
16	
14	
12	
10	
15	
13	
9	
17	
8	
8	
12	
8	
12	
14	
18	
18	
7	
15	
17	
7	
10	
18	
13	
11	
10	
9	
15	
7	
16	
15	
13	
14	
6	
17	
9	
16	
15	
9	
15	
17	
12	
5	
13	
14	
15	
10	
17	
11	
9	
11	
8	
16	
13	
6	
15	
8	
10	
16	
10	
14	
18	
17	
5	
15	
7	
14	
10	
12	
10	
19	
14	
5	
10	
15	
13	
19	
9	
19	
11	
11	
18	
11	
17	
19	
12	
6	
16	
15	
15	
10	
10	
11	
10	
7	
15	
14	
19	
13	
15	
13	
17	
14	
10	
12	
9	
11	
5	
22	
7	
8	
12	
14	
17	
15	
12	
9	
18	
8	
7	
14	
14	
15	
14	
8	
10	
17	
11	
13	
4	
12	
13	
12	
18	
22	
11	
12	
9	
13	
10	
16	
17	
12	
19	
7	
17	
12	
14	
15	
9	
8	
11	
10	
11	
11	
7	
13	
11	
14	
16	
16	
11	
10	
14	
12	
16	
15	
14	
6	
8	
11	
15	
5	
9	
14	
6	
12	
9	
19	
10	
11	
10	
14	
8	
11	
9	
9	
8	
13	
12	
11	
9	
5	
9	
9	
15	
14	
11	
10	
12	
15	
12	
14	
10	
8	
15	
13	
9	
11	
9	
11	
13	
6	
14	
9	
10	
10	
14	
9	
7	
14	
17	
8	
18	
12	
15	
11	
7	
12	
12	
6	
13	
15	
8	
4	
8	
16	
15	
10	
13	
11	
9	
6	
8	
5	
13	
14	
12	
13	
15	
12	
11	
9	
11	
10	
9	
14	
14	
11	
17	
15	
9	
5	
12	
13	
14	
13	
12	
9	
9	
15	
15	
10	
9	
7	
5	
17	
13	
8	
9	
12	
13	
5	
6	
8	
11	
12	
8	
6	
20	
13	
10	
22	
11	
11	
19	
10	
18	
8	
14	
10	
20	
8	
10	
15	
9	
12	
11	
8	
14	
3	
12	
16	
12	
9	
7	
10	
8	
10	
8	
13	
9	
11	
12	
10	
14	
12	
13	
12	
19	
10	
11	
15	
14	
18	
14	
13	
17	
11	
8	
11	
14	
10	
13	
9	
6	
7	
12	
9	
10	
10	
11	
9	
13	
9	
15	
10	
8	
12	
9	
12	
7	
9	
7	
12	
8	
12	
11	
9	
14	
14	
12	
15	
8	
11	
10	
10	
10	
10	
6	
13	
12	
11	
9	
10	
7	
13	
10	
12	
15	
9	
5	
17	
12	
12	
12	
6	
5	
11	
12	
15	
11	
11	
9	
10	
5	
15	
6	
6	
14	
10	
12	
18	
16	
11	
12	
10	
11	
11	
14	
6	
7	
5	
11	
13	
9	
11	
9	
9	
11	
10	
8	
5	
7	
14	
10	
11	
9	
5	
8	
6	
13	
8	
12	
14	
8	
9	
14	
10	
8	
9	
7	
12	
15	
5	
7	
13	
12	
5	
8	
9	
5	
10	
7	
14	
12	
11	
16	
11	
9	
11	
10	
6	
4	
8	
13	
14	
7	
10	
10	
13	
13	
15	
7	
12	
4	
11	
7	
16	
16	
7	
14	
3	
14	
13	
12	
5	
13	
14	
11	
10	
12	
8	
13	
12	
3	
9	
8	
4	
9	
8	
17	
10	
12	
19	
11	
5	
9	
15	
11	
10	
16	
15	
7	
11	
5	
10	
15	
10	
13	
7	
13	
8	
16	
12	
11	
11	
10	
12	
12	
8	
6	
4	
11	
8	
5	
10	
10	
10	
13	
13	
9	
12	
12	
14	
6	
8	
4	
10	
11	
6	
12	
8	
13	
8	
7	
8	
12	
12	
10	
11	
6	
11	
12	
9	
15	
8	
9	
12	
9	
8	
6	
10	
8	
9	
15	
16	
12	
8	
3	
14	
9	
14	
9	
8	
12	
15	
12	
7	
10	
13	
10	
8	
12	
6	
3	
10	
4	
7	
9	
13	
13	
7	
10	
9	
7	
8	
9	
11	
4	
9	
12	
2	
12	
6	
10	
8	
9	
11	
9	
22	
10	
7	
4	
7	
9	
16	
10	
5	
5	
7	
9	
12	
9	
6	
11	
5	
5	
10	
7	
15	
9	
14	
11	
11	
6	
7	
10	
7	
10	
10	
10	
5	
9	
14	
7	
11	
6	
6	
10	
6	
13	
10	
8	
11	
7	
9	
9	
8	
10	
7	
7	
5	
11	
3	
7	
11	
14	
11	
10	
12	
11	
11	
7	
10	
7	
7	
5	
10	
15	
2	
21	
6	
12	
13	
8	
14	
5	
5	
11	
14	
14	
11	
9	
13	
13	
12	
7	
9	
8	
13	
7	
4	
9	
12	
11	
13	
7	
8	
10	
12	
13	
10	
11	
4	
9	
12	
13	
8	
9	
6	
7	
4	
5	
10	
11	
6	
8	
10	
8	
12	
11	
7	
7	
9	
10	
9	
6	
6	
4	
11	
7	
2	
9	
7	
12	
4	
10	
8	
7	
16	
8	
7	
10	
10	
8	
8	
7	
7	
7	
9	
5	
7	
8	
10	
11	
7	
10	
12	
6	
8	
12	
10	
5	
11	
7	
4	
12	
10	
5	
5	
11	
13	
18	
10	
10	
8	
11	
12	
10	
9	
7	
10	
8	
5	
11	
3	
8	
16	
10	
12	
13	
16	
10	
6	
7	
9	
10	
12	
11	
6	
9	
4	
8	
4	
15	
6	
8	
7	
10	
12	
7	
12	
5	
10	
12	
6	
4	
6	
11	
11	
9	
6	
8	
9	
7	
9	
5	
7	
7	
17	
8	
7	
7	
6	
15	
7	
5	
6	
9	
11	
7	
7	
10	
13	
11	
9	
7	
8	
8	
5	
11	
6	
10	
7	
8	
15	
8	
5	
8	
12	
10	
9	
7	
6	
13	
12	
4	
8	
7	
11	
11	
8	
7	
9	
6	
11	
11	
16	
7	
14	
12	
9	
6	
5	
11	
4	
10	
6	
6	
4	
8	
11	
13	
10	
4	
11	
6	
13	
9	
11	
6	
11	
8	
8	
11	
7	
5	
4	
11	
11	
6	
9	
10	
21	
8	
14	
9	
12	
6	
19	
9	
5	
12	
9	
6	
6	
13	
11	
8	
8	
16	
7	
2	
11	
8	
9	
9	
6	
10	
11	
7	
10	
6	
10	
5	
10	
6	
12	
15	
5	
13	
6	
5	
11	
7	
7	
9	
14	
14	
8	
10	
9	
5	
9	
11	
12	
7	
12	
9	
10	
21	
11	
12	
6	
5	
10	
5	
9	
8	
6	
6	
8	
7	
8	
8	
9	
9	
9	
6	
13	
6	
12	
10	
9	
7	
15	
12	
9	
7	
20	
9	
11	
10	
6	
9	
9	
12	
10	
10	
10	
7	
9	
5	
11	
11	
8	
11	
15	
9	
9	
10	
3	
7	
14	
13	
8	
9	
6	
8	
10	
6	
6	
8	
10	
9	
7	
11	
11	
5	
7	
3	
10	
10	
11	
7	
9	
12	
9	
8	
8	
7	
7	
11	
13	
8	
2	
10	
5	
9	
6	
14	
14	
12	
11	
2	
8	
7	
8	
7	
6	
7	
9	
14	
4	
9	
7	
9	
5	
7	
10	
6	
8	
4	
4	
7	
13	
8	
14	
12	
11	
11	
4	
7	
4	
9	
6	
4	
7	
11	
11	
13	
7	
6	
8	
2	
11	
11	
5	
8	
10	
5	
12	
5	
11	
11	
7	
6	
13	
14	
9	
12	
7	
5	
11	
9	
7	
8	
7	
7	
8	
6	
15	
8	
3	
4	
8	
9	
6	
11	
9	
19	
8	
7	
7	
10	
12	
3	
13	
4	
12	
11	
9	
7	
10	
8	
5	
7	
14	
7	
7	
8	
12	
5	
6	
5	
11	
10	
17	
5	
4	
16	
8	
6	
6	
9	
10	
9	
7	
6	
9	
6	
15	
7	
6	
11	
8	
10	
6	
11	
8	
11	
9	
8	
9	
7	
6	
7	
5	
8	
8	
9	
8	
8	
11	
14	
8	
6	
10	
6	
9	
6	
7	
4	
11	
7	
4	
10	
10	
12	
10	
5	
13	
7	
8	
8	
7	
5	
5	
6	
12	
11	
7	
7	
9	
10	
11	
9	
14	
5	
12	
5	
4	
5	
10	
8	
6	
9	
13	
5	
11	
10	
8	
7	
6	
9	
6	
9	
13	
5	
11	
7	
9	
6	
5	
8	
5	
9	
12	
6	
5	
7	
5	
7	
7	
5	
5	
11	
6	
7	
5	
8	
7	
7	
9	
15	
8	
5	
5	
4	
11	
11	
8	
8	
7	
7	
4	
11	
13	
15	
12	
5	
8	
5	
8	
7	
6	
8	
11	
8	
7	
5	
10	
5	
9	
9	
6	
8	
7	
7	
15	
11	
5	
14	
8	
7	
9	
5	
5	
10	
4	
7	
11	
7	
5	
10	
7	
6	
8	
10	
8	
5	
13	
7	
8	
5	
10	
11	
10	
4	
10	
10	
7	
12	
5	
7	
9	
11	
4	
7	
9	
6	
11	
5	
6	
7	
3	
6	
11	
7	
5	
14	
7	
10	
8	
12	
4	
10	
6	
11	
10	
8	
10	
6	
13	
9	
5	
10	
11	
7	
8	
8	
5	
13	
12	
11	
10	
9	
6	
10	
12	
10	
8	
10	
7	
6	
10	
7	
6	
6	
3	
7	
12	
10	
6	
5	
10	
7	
7	
9	
7	
6	
5	
15	
6	
4	
6	
6	
7	
11	
6	
11	
5	
6	
8	
11	
12	
5	
12	
7	
7	
5	
8	
5	
9	
7	
4	
3	
9	
6	
11	
8	
8	
9	
7	
6	
8	
9	
8	
4	
7	
5	
8	
6	
10	
10	
7	
9	
10	
7	
5	
6	
3	
7	
4	
6	
5	
6	
7	
2	
4	
6	
12	
4	
11	
10	
6	
7	
12	
9	
13	
10	
4	
11	
6	
9	
4	
10	
8	
9	
6	
13	
14	
4	
12	
2	
10	
9	
4	
11	
7	
7	
2	
8	
8	
8	
7	
11	
10	
8	
10	
9	
8	
5	
8	
7	
9	
7	
5	
12	
10	
8	
7	
14	
6	
6	
11	
5	
9	
8	
12	
5	
11	
11	
3	
5	
7	
7	
8	
10	
8	
10	
7	
8	
10	
5	
9	
8	
16	
9	
4	
12	
5	
11	
1	
7	
10	
6	
8	
9	
7	
15	
9	
7	
9	
13	
7	
11	
5	
4	
9	
6	
5	
10	
8	
8	
6	
7	
9	
5	
5	
6	
5	
6	
5	
5	
8	
5	
9	
11	
11	
11	
6	
4	
6	
14	
8	
5	
4	
10	
12	
9	
5	
6	
3	
7	
8	
12	
4	
5	
10	
8	
12	
6	
8	
4	
6	
5	
6	
4	
4	
11	
9	
10	
11	
8	
1	
7	
10	
8	
7	
10	
7	
11	
8	
10	
8	
7	
7	
8	
3	
4	
10	
7	
9	
8	
10	
5	
4	
6	
6	
8	
5	
7	
11	
8	
6	
7	
6	
9	
5	
6	
3	
13	
5	
12	
8	
9	
5	
6	
8	
5	
7	
11	
13	
7	
8	
10	
11	
8	
4	
7	
6	
7	
1	
5	
4	
4	
7	
4	
3	
10	
13	
12	
5	
12	
7	
11	
5	
6	
11	
9	
6	
8	
10	
8	
9	
6	
14	
11	
9	
7	
7	
5	
4	
7	
8	
5	
11	
8	
7	
3	
7	
5	
4	
8	
2	
7	
10	
3	
8	
8	
9	
8	
8	
9	
10	
2	
9	
10	
3	
6	
9	
2	
4	
8	
11	
7	
6	
4	
6	
7	
12	
8	
9	
4	
8	
11	
7	
9	
9	
10	
7	
6	
6	
6	
8	
5	
5	
1	
6	
11	
3	
9	
4	
5	
7	
6	
8	
8	
4	
5	
7	
9	
9	
10	
5	
4	
3	
6	
7	
9	
4	
9	
3	
5	
7	
5	
6	
2	
3	
12	
5	
5	
7	
3	
5	
11	
7	
10	
4	
3	
7	
9	
6	
6	
8	
7	
4	
7	
5	
4	
5	
4	
3	
5	
6	
4	
10	
8	
7	
2	
6	
6	
5	
9	
6	
8	
8	
12	
4	
7	
12	
11	
6	
11	
7	
3	
6	
8	
8	
7	
6	
8	
5	
2	
6	
7	
6	
5	
6	
4	
8	
6	
4	
5	
7	
8	
3	
5	
6	
8	
6	
9	
1	
8	
3	
4	
6	
11	
4	
11	
8	
11	
5	
5	
6	
4	
8	
9	
5	
5	
7	
3	
9	
3	
8	
3	
4	
7	
8	
8	
12	
7	
5	
9	
6	
6	
12	
9	
3	
3	
6	
9	
12	
4	
5	
13	
6	
2	
4	
8	
13	
7	
8	
2	
3	
6	
6	
4	
6	
8	
8	
4	
11	
4	
10	
2	
9	
4	
9	
7	
6	
9	
5	
10	
6	
10	
4	
3	
9	
4	
7	
12	
8	
7	
7	
7	
7	
7	
9	
5	
10	
5	
8	
7	
9	
4	
5	
10	
3	
10	
3	
6	
8	
5	
11	
9	
7	
9	
8	
7	
4	
8	
5	
6	
5	
5	
9	
3	
8	
6	
4	
6	
10	
5	
8	
5	
5	
9	
4	
2	
8	
5	
5	
4	
7	
6	
6	
6	
5	
7	
2	
8	
5	
4	
5	
7	
5	
7	
6	
3	
11	
2	
4	
9	
4	
3	
5	
4	
7	
3	
5	
8	
7	
9	
9	
5	
9	
8	
7	
6	
3	
2	
7	
9	
7	
13	
5	
4	
8	
7	
8	
8	
6	
7	
6	
6	
9	
4	
3	
4	
10	
7	
4	
7	
8	
7	
5	
4	
4	
7	
5	
4	
9	
4	
4	
3	
7	
4	
3	
8	
9	
10	
3	
5	
9	
5	
9	
5	
11	
3	
7	
7	
6	
5	
3	
8	
7	
8	
8	
5	
7	
9	
6	
8	
11	
6	
4	
5	
7	
4	
6	
6	
6	
6	
8	
5	
6	
12	
6	
8	
8	
7	
2	
2	
7	
7	
7	
5	
5	
11	
5	
1	
7	
7	
3	
4	
7	
11	
4	
2	
5	
3	
5	
8	
2	
6	
9	
6	
5	
10	
7	
5	
11	
4	
5	
4	
7	
5	
0	
5	
8	
3	
4	
8	
9	
10	
6	
5	
9	
4	
5	
11	
6	
2	
6	
3	
6	
6	
6	
9	
3	
6	
4	
8	
5	
7	
5	
5	
4	
5	
5	
11	
5	
4	
8	
4	
4	
3	
4	
4	
6	
4	
8	
3	
8	
8	
4	
5	
5	
8	
8	
3	
5	
4	
7	
7	
2	
8	
3	
8	
5	
7	
6	
3	
2	
7	
6	
10	
6	
3	
7	
11	
5	
7	
4	
13	
13	
2	
5	
1	
9	
7	
6	
2	
4	
4	
4	
4	
6	
10	
8	
13	
4	
7	
5	
7	
8	
6	
4	
4	
8	
9	
5	
3	
9	
9	
5	
5	
6	
9	
6	
5	
11	
3	
7	
6	
1	
4	
7	
9	
10	
12	
4	
5	
4	
4	
9	
4	
8	
6	
8	
2	
5	
1	
6	
10	
5	
6	
11	
3	
8	
3	
5	
7	
8	
5	
6	
4	
5	
2	
2	
4	
11	
6	
3	
5	
5	
4	
5	
8	
7	
12	
5	
6	
8	
11	
3	
2	
6	
7	
3	
4	
6	
6	
10	
2	
4	
5	
6	
6	
6	
5	
8	
7	
5	
7	
3	
5	
10	
6	
4	
9	
9	
7	
5	
3	
5	
6	
7	
9	
7	
6	
6	
3	
2	
3	
6	
6	
9	
4	
6	
7	
4	
11	
4	
7	
2	
4	
1	
4	
7	
3	
6	
10	
6	
7	
2	
5	
7	
4	
6	
6	
7	
4	
5	
7	
10	
8	
3	
6	
5	
5	
10	
7	
6	
2	
6	
9	
8	
6	
7	
4	
5	
1	
8	
1	
6	
7	
6	
3	
5	
7	
3	
8	
5	
2	
3	
6	
2	
5	
4	
7	
3	
4	
5	
4	
10	
9	
6	
5	
7	
7	
6	
12	
6	
6	
6	
1	
7	
9	
6	
5	
6	
4	
6	
5	
3	
7	
10	
3	
5	
5	
8	
10	
5	
6	
7	
8	
6	
9	
7	
5	
9	
1	
6	
8	
3	
5	
6	
4	
4	
10	
1	
4	
8	
6	
3	
8	
5	
7	
3	
7	
5	
5	
2	
6	
10	
3	
5	
9	
5	
11	
6	
2	
8	
6	
7	
9	
5	
4	
3	
9	
9	
7	
3	
9	
4	
6	
5	
3	
4	
10	
2	
7	
4	
2	
8	
8	
8	
7	
2	
4	
6	
5	
4	
5	
1	
4	
3	
3	
3	
4	
3	
7	
4	
5	
8	
6	
7	
6	
3	
6	
8	
4	
7	
7	
3	
4	
4	
4	
7	
3	
9	
6	
6	
7	
3	
4	
3	
8	
7	
3	
4	
6	
7	
3	
5	
2	
9	
4	
4	
8	
6	
2	
4	
3	
8	
4	
6	
6	
2	
9	
7	
5	
2	
5	
4	
5	
4	
4	
7	
7	
6	
9	
3	
5	
4	
4	
6	
12	
5	
9	
8	
3	
2	
7	
8	
3	
10	
7	
5	
6	
9	
12	
3	
3	
1	
10	
6	
6	
6	
9	
8	
6	
4	
7	
8	
8	
9	
6	
7	
3	
4	
5	
3	
5	
2	
4	
5	
6	
6	
9	
9	
7	
4	
7	
5	
5	
5	
8	
8	
4	
7	
3	
3	
2	
3	
6	
6	
5	
6	
5	
6	
12	
4	
6	
4	
7	
6	
8	
5	
5	
5	
2	
4	
5	
6	
5	
11	
8	
5	
3	
6	
7	
4	
4	
3	
8	
6	
2	
4	
6	
6	
3	
1	
5	
3	
7	
4	
4	
5	
6	
11	
3	
2	
5	
2	
2	
6	
2	
6	
7	
5	
2	
5	
6	
3	
9	
5	
7	
5	
6	
2	
3	
11	
3	
3	
6	
3	
3	
5	
5	
3	
9	
4	
7	
7	
5	
8	
3	
4	
7	
5	
4	
5	
5	
7	
2	
5	
3	
5	
3	
5	
7	
5	
3	
2	
4	
3	
8	
7	
4	
2	
5	
2	
3	
6	
4	
3	
6	
6	
7	
3	
3	
7	
5	
6	
8	
6	
6	
3	
6	
3	
5	
4	
4	
6	
6	
8	
4	
7	
6	
5	
7	
6	
11	
4	
10	
4	
5	
6	
4	
6	
4	
7	
2	
3	
3	
4	
7	
5	
9	
3	
7	
4	
6	
4	
7	
3	
3	
9	
5	
7	
6	
4	
3	
7	
4	
4	
6	
4	
6	
6	
7	
6	
6	
5	
9	
4	
5	
5	
3	
4	
5	
6	
8	
7	
0	
4	
2	
10	
5	
5	
5	
4	
1	
3	
4	
9	
8	
3	
4	
7	
6	
6	
4	
2	
4	
2	
13	
3	
3	
7	
4	
7	
3	
3	
3	
5	
8	
6	
9	
7	
11	
6	
3	
8	
6	
6	
3	
4	
4	
3	
2	
5	
5	
5	
5	
5	
5	
5	
2	
1	
4	
9	
3	
5	
6	
5	
6	
4	
4	
9	
7	
2	
3	
4	
3	
6	
3	
5	
2	
6	
9	
7	
7	
5	
6	
7	
7	
4	
6	
13	
5	
7	
5	
2	
6	
4	
7	
3	
12	
4	
2	
10	
5	
3	
9	
5	
4	
6	
8	
8	
2	
5	
2	
4	
6	
7	
6	
5	
10	
6	
5	
6	
4	
4	
8	
6	
4	
5	
6	
5	
2	
6	
4	
5	
6	
6	
5	
6	
5	
9	
4	
6	
6	
5	
5	
7	
5	
4	
1	
3	
6	
9	
1	
4	
2	
4	
9	
3	
4	
4	
7	
4	
7	
6	
3	
5	
5	
5	
4	
7	
6	
3	
6	
5	
3	
6	
4	
3	
8	
1	
1	
4	
1	
4	
7	
5	
1	
8	
4	
8	
3	
7	
8	
3	
3	
2	
7	
2	
8	
2	
8	
3	
5	
6	
5	
4	
4	
7	
6	
11	
9	
5	
9	
7	
0	
1	
2	
4	
4	
5	
9	
7	
8	
4	
4	
4	
9	
2	
6	
9	
6	
5	
3	
7	
5	
3	
6	
4	
8	
3	
8	
6	
5	
4	
5	
7	
2	
1	
2	
2	
3	
6	
5	
5	
8	
7	
6	
3	
6	
5	
6	
8	
5	
1	
6	
5	
3	
4	
6	
4	
7	
3	
6	
5	
4	
8	
5	
6	
3	
4	
4	
5	
6	
6	
2	
2	
2	
4	
5	
3	
5	
5	
4	
3	
5	
6	
4	
4	
9	
3	
7	
3	
6	
4	
5	
3	
9	
6	
11	
7	
5	
4	
6	
3	
2	
3	
7	
2	
4	
5	
5	
1	
5	
8	
4	
7	
2	
6	
4	
5	
2	
4	
2	
6	
3	
3	
9	
6	
3	
5	
8	
8	
3	
4	
8	
9	
5	
4	
8	
3	
10	
7	
6	
5	
7	
6	
4	
5	
7	
4	
7	
3	
5	
3	
3	
7	
6	
1	
5	
7	
5	
4	
6	
0	
4	
5	
2	
2	
2	
4	
6	
7	
5	
5	
2	
5	
3	
6	
5	
6	
5	
6	
4	
3	
4	
2	
5	
3	
6	
2	
6	
2	
6	
5	
3	
6	
6	
6	
4	
5	
3	
8	
3	
3	
4	
5	
3	
3	
8	
5	
5	
3	
5	
6	
6	
4	
5	
5	
2	
2	
3	
4	
5	
5	
5	
2	
7	
5	
6	
2	
10	
7	
4	
2	
5	
4	
5	
8	
8	
9	
4	
4	
3	
6	
1	
1	
4	
4	
10	
5	
2	
4	
4	
6	
5	
5	
3	
7	
7	
2	
5	
2	
4	
5	
4	
7	
7	
6	
4	
2	
5	
2	
3	
6	
6	
6	
3	
8	
12	
6	
5	
5	
4	
6	
9	
3	
5	
4	
5	
6	
3	
3	
4	
6	
5	
2	
6	
3	
6	
1	
4	
4	
6	
4	
7	
2	
1	
6	
2	
6	
5	
6	
3	
7	
3	
7	
7	
2	
3	
3	
1	
0	
3	
3	
5	
3	
3	
11	
6	
5	
2	
5	
3	
2	
7	
2	
6	
5	
3	
4	
7	
1	
5	
6	
5	
3	
6	
7	
5	
1	
3	
6	
3	
5	
2	
3	
6	
4	
8	
4	
5	
2	
3	
3	
3	
3	
5	
7	
6	
10	
3	
5	
4	
2	
6	
7	
5	
4	
4	
3	
5	
6	
4	
8	
2	
2	
4	
10	
5	
8	
8	
6	
5	
8	
4	
3	
3	
4	
3	
5	
5	
4	
4	
3	
1	
3	
7	
5	
7	
4	
3	
5	
7	
2	
4	
4	
4	
6	
5	
7	
6	
10	
4	
7	
7	
5	
5	
5	
4	
6	
4	
4	
5	
3	
4	
2	
3	
2	
6	
8	
3	
7	
1	
5	
2	
5	
6	
5	
2	
4	
7	
6	
7	
8	
5	
5	
2	
2	
6	
12	
3	
6	
4	
6	
7	
7	
4	
6	
4	
0	
5	
5	
6	
1	
3	
2	
6	
5	
5	
5	
5	
4	
6	
6	
3	
3	
6	
4	
8	
4	
4	
3	
5	
3	
1	
4	
3	
8	
0	
3	
4	
2	
6	
6	
4	
5	
0	
5	
7	
3	
5	
2	
6	
6	
4	
9	
2	
5	
3	
1	
3	
4	
2	
4	
9	
6	
3	
2	
5	
4	
3	
8	
4	
6	
7	
4	
7	
3	
3	
4	
4	
3	
5	
6	
4	
3	
5	
5	
4	
7	
2	
2	
6	
4	
6	
6	
8	
3	
6	
3	
3	
4	
7	
4	
5	
1	
10	
1	
5	
9	
3	
3	
3	
4	
7	
6	
5	
3	
8	
6	
1	
3	
3	
6	
5	
5	
2	
2	
2	
4	
3	
2	
0	
2	
4	
6	
5	
6	
6	
5	
2	
6	
3	
3	
9	
6	
7	
5	
0	
9	
1	
3	
5	
7	
1	
6	
9	
1	
6	
6	
8	
2	
2	
2	
3	
5	
6	
3	
6	
3	
6	
3	
2	
1	
4	
6	
6	
4	
5	
4	
4	
4	
3	
1	
5	
3	
2	
1	
5	
1	
7	
2	
3	
3	
4	
4	
5	
4	
4	
6	
5	
2	
3	
5	
4	
2	
6	
1	
3	
2	
8	
4	
7	
2	
3	
8	
3	
4	
7	
8	
2	
3	
3	
7	
3	
4	
7	
6	
3	
3	
4	
3	
0	
6	
0	
6	
0	
6	
4	
1	
6	
0	
4	
4	
4	
4	
3	
2	
4	
2	
4	
4	
1	
7	
3	
3	
5	
4	
2	
1	
6	
2	
5	
5	
6	
6	
8	
7	
5	
5	
2	
3	
4	
4	
3	
2	
4	
4	
1	
5	
6	
6	
3	
6	
1	
5	
3	
4	
4	
7	
4	
4	
5	
3	
4	
10	
5	
3	
2	
5	
0	
5	
5	
3	
5	
3	
3	
3	
4	
2	
2	
7	
4	
2	
6	
2	
1	
3	
3	
1	
2	
3	
8	
1	
3	
4	
6	
6	
5	
5	
8	
1	
5	
3	
3	
2	
2	
9	
3	
4	
4	
4	
3	
1	
3	
3	
2	
7	
4	
7	
2	
3	
9	
3	
3	
4	
6	
2	
2	
6	
3	
1	
4	
6	
3	
8	
2	
4	
0	
