#PicoHarp 300  Histogram Data			03/27/2023 01:12:55 PM
#channels per curve
15625
#display curve no.
0	
#memory block no.
0	
#ns/channel
0.1280	
#counts
0	
0	
1	
4	
0	
2	
0	
0	
1	
4	
4	
1	
1	
7	
1	
1	
0	
1	
4	
1	
1	
1	
0	
3	
2	
0	
0	
1	
1	
1	
3	
0	
4	
0	
2	
2	
1	
1	
0	
1	
3	
1	
0	
1	
1	
0	
1	
1	
0	
1	
1	
2	
1	
4	
1	
1	
1	
3	
2	
1	
2	
1	
2	
2	
2	
3	
7	
5	
32	
74	
138	
204	
343	
456	
535	
626	
667	
671	
713	
750	
712	
743	
714	
641	
668	
683	
645	
637	
702	
660	
638	
592	
627	
636	
633	
642	
591	
601	
560	
571	
594	
571	
576	
541	
563	
539	
556	
554	
561	
504	
562	
573	
544	
540	
565	
505	
458	
553	
484	
507	
515	
514	
521	
517	
500	
441	
442	
505	
440	
459	
470	
481	
446	
415	
434	
438	
455	
487	
477	
432	
461	
438	
447	
451	
440	
412	
424	
416	
404	
427	
446	
376	
399	
420	
402	
403	
397	
425	
390	
388	
411	
428	
368	
368	
375	
387	
404	
359	
386	
350	
393	
382	
358	
348	
341	
350	
377	
374	
386	
342	
358	
365	
335	
345	
349	
307	
366	
332	
350	
365	
358	
364	
337	
326	
371	
355	
326	
324	
325	
342	
329	
325	
359	
328	
333	
317	
312	
320	
311	
285	
326	
318	
299	
327	
325	
291	
285	
300	
297	
314	
280	
304	
285	
304	
308	
303	
317	
307	
299	
318	
263	
313	
293	
267	
262	
290	
276	
283	
281	
297	
289	
299	
287	
292	
283	
310	
267	
288	
243	
256	
269	
254	
284	
269	
288	
296	
256	
257	
256	
244	
278	
282	
289	
251	
281	
240	
262	
269	
254	
268	
269	
286	
259	
239	
244	
274	
263	
247	
250	
244	
251	
280	
254	
241	
268	
258	
267	
246	
240	
232	
218	
254	
237	
256	
224	
256	
254	
221	
248	
211	
257	
225	
246	
230	
255	
224	
238	
260	
247	
240	
198	
234	
241	
212	
212	
231	
224	
226	
249	
238	
237	
235	
212	
226	
223	
206	
212	
218	
201	
244	
226	
204	
206	
244	
197	
207	
193	
210	
215	
248	
211	
192	
211	
212	
197	
206	
208	
227	
202	
244	
205	
204	
226	
181	
191	
188	
192	
213	
214	
211	
214	
189	
181	
187	
183	
198	
186	
217	
186	
204	
200	
201	
217	
191	
198	
197	
193	
188	
187	
189	
157	
200	
214	
174	
203	
183	
172	
220	
187	
199	
179	
189	
179	
189	
189	
167	
188	
182	
197	
193	
154	
168	
173	
176	
170	
182	
175	
174	
160	
189	
187	
178	
170	
153	
155	
188	
166	
193	
187	
173	
163	
187	
167	
162	
177	
172	
167	
171	
172	
178	
170	
178	
167	
150	
167	
159	
168	
166	
163	
164	
154	
160	
191	
163	
146	
177	
156	
156	
153	
151	
171	
149	
140	
158	
164	
154	
145	
172	
170	
165	
140	
172	
171	
174	
154	
153	
144	
157	
172	
148	
149	
133	
151	
167	
151	
134	
154	
154	
163	
159	
156	
141	
149	
127	
139	
141	
140	
167	
136	
154	
151	
139	
133	
127	
131	
149	
139	
138	
130	
126	
162	
160	
155	
140	
142	
122	
132	
150	
127	
121	
141	
135	
130	
126	
125	
150	
150	
129	
127	
149	
140	
119	
129	
127	
143	
121	
134	
132	
150	
149	
120	
143	
137	
134	
124	
130	
114	
152	
108	
110	
139	
106	
129	
131	
111	
129	
126	
131	
115	
101	
131	
144	
128	
134	
146	
122	
125	
132	
136	
139	
124	
120	
109	
114	
125	
129	
122	
112	
106	
115	
110	
124	
102	
111	
122	
102	
123	
141	
116	
113	
115	
93	
131	
105	
108	
115	
107	
106	
90	
116	
123	
108	
120	
118	
126	
109	
111	
104	
124	
92	
115	
128	
123	
114	
116	
114	
109	
100	
113	
115	
100	
120	
129	
114	
87	
91	
122	
116	
88	
112	
96	
114	
100	
122	
111	
108	
93	
112	
106	
105	
110	
111	
113	
94	
119	
105	
104	
98	
109	
92	
112	
109	
98	
110	
101	
107	
111	
111	
105	
103	
105	
95	
116	
95	
103	
99	
109	
99	
129	
107	
107	
94	
107	
93	
91	
97	
96	
96	
106	
100	
83	
102	
104	
88	
101	
90	
91	
96	
89	
90	
96	
85	
81	
88	
96	
108	
103	
101	
79	
85	
96	
90	
102	
90	
99	
90	
94	
106	
86	
92	
84	
91	
86	
95	
82	
89	
78	
105	
82	
107	
90	
85	
104	
86	
94	
105	
85	
98	
89	
94	
106	
87	
94	
84	
75	
94	
92	
95	
86	
80	
84	
86	
81	
77	
83	
78	
84	
76	
90	
95	
77	
86	
83	
84	
67	
82	
84	
83	
83	
82	
89	
82	
87	
76	
72	
71	
90	
78	
77	
76	
83	
90	
75	
88	
94	
88	
82	
100	
86	
68	
74	
89	
92	
77	
89	
86	
81	
104	
72	
78	
73	
82	
82	
96	
78	
72	
86	
86	
85	
72	
57	
67	
86	
82	
80	
85	
75	
79	
76	
79	
90	
58	
84	
82	
82	
71	
87	
71	
77	
82	
70	
89	
72	
75	
72	
81	
72	
68	
75	
89	
67	
80	
85	
74	
74	
72	
74	
62	
82	
76	
68	
77	
77	
68	
64	
59	
65	
73	
80	
71	
77	
72	
74	
70	
73	
62	
68	
62	
59	
77	
66	
78	
62	
52	
94	
77	
68	
58	
69	
69	
79	
61	
78	
76	
69	
70	
61	
79	
65	
68	
64	
66	
71	
62	
70	
61	
77	
63	
71	
65	
72	
69	
76	
63	
71	
67	
63	
60	
71	
65	
63	
65	
62	
66	
51	
59	
72	
65	
64	
66	
87	
72	
81	
73	
61	
75	
59	
63	
64	
56	
54	
68	
67	
68	
56	
65	
58	
55	
70	
67	
62	
70	
57	
71	
55	
63	
63	
74	
56	
58	
62	
54	
68	
54	
62	
67	
61	
74	
67	
48	
59	
63	
64	
53	
55	
58	
54	
55	
64	
57	
76	
53	
65	
48	
56	
68	
54	
62	
57	
55	
59	
61	
61	
58	
62	
52	
56	
59	
56	
58	
60	
63	
54	
52	
57	
58	
57	
50	
61	
55	
59	
63	
60	
45	
53	
71	
55	
57	
67	
65	
63	
56	
66	
57	
54	
51	
53	
63	
52	
56	
50	
55	
52	
52	
52	
53	
54	
63	
63	
45	
49	
53	
61	
86	
56	
69	
50	
47	
50	
60	
47	
59	
52	
44	
44	
49	
54	
55	
39	
44	
66	
52	
52	
51	
55	
55	
44	
55	
57	
49	
42	
45	
43	
61	
43	
53	
48	
54	
61	
51	
42	
45	
57	
55	
51	
46	
70	
52	
48	
43	
56	
48	
47	
45	
55	
53	
54	
46	
46	
50	
45	
42	
46	
42	
42	
61	
54	
48	
35	
40	
42	
32	
54	
56	
51	
46	
48	
38	
53	
55	
55	
52	
61	
41	
51	
54	
42	
53	
50	
56	
49	
46	
36	
55	
55	
44	
44	
47	
49	
43	
41	
43	
38	
44	
49	
58	
38	
43	
38	
42	
46	
32	
37	
50	
47	
48	
40	
53	
51	
51	
54	
54	
37	
49	
34	
48	
40	
33	
47	
50	
48	
35	
37	
45	
47	
38	
40	
53	
43	
46	
47	
41	
44	
53	
34	
34	
33	
52	
54	
48	
39	
38	
42	
47	
39	
36	
50	
46	
54	
42	
43	
43	
64	
39	
31	
37	
43	
50	
44	
45	
40	
42	
38	
56	
31	
47	
42	
38	
45	
44	
44	
40	
53	
40	
32	
27	
46	
33	
39	
47	
35	
32	
40	
40	
44	
36	
35	
31	
32	
46	
41	
40	
34	
41	
32	
49	
36	
41	
38	
44	
44	
42	
36	
37	
41	
41	
42	
38	
30	
37	
33	
38	
46	
36	
49	
30	
42	
45	
40	
34	
43	
37	
33	
40	
46	
36	
33	
30	
35	
46	
46	
41	
37	
41	
40	
38	
37	
42	
36	
37	
41	
27	
39	
41	
37	
48	
39	
37	
36	
40	
34	
47	
34	
31	
36	
42	
31	
29	
29	
27	
35	
43	
31	
39	
45	
34	
35	
34	
34	
34	
31	
33	
38	
28	
37	
32	
32	
41	
52	
39	
37	
34	
37	
38	
36	
40	
28	
23	
35	
39	
39	
37	
26	
29	
33	
37	
29	
35	
34	
41	
25	
43	
41	
35	
35	
36	
31	
29	
34	
35	
28	
34	
40	
31	
32	
44	
28	
36	
37	
33	
28	
26	
52	
35	
36	
25	
41	
46	
33	
44	
34	
32	
30	
25	
36	
27	
32	
31	
30	
30	
29	
30	
25	
30	
38	
24	
35	
28	
39	
44	
35	
28	
27	
37	
23	
31	
37	
30	
21	
29	
27	
28	
27	
35	
47	
41	
29	
26	
26	
27	
27	
20	
41	
48	
21	
28	
30	
38	
34	
28	
33	
31	
32	
38	
27	
26	
28	
40	
36	
33	
35	
28	
28	
35	
27	
23	
31	
36	
35	
31	
31	
36	
26	
26	
34	
27	
30	
32	
32	
32	
26	
36	
30	
27	
32	
26	
29	
27	
34	
28	
42	
22	
31	
27	
39	
23	
25	
26	
36	
24	
22	
25	
27	
34	
40	
32	
24	
19	
29	
32	
39	
23	
22	
33	
34	
23	
37	
28	
35	
27	
34	
26	
30	
25	
31	
28	
31	
25	
29	
28	
20	
24	
23	
25	
31	
32	
23	
27	
32	
23	
21	
25	
29	
24	
32	
33	
36	
23	
21	
39	
26	
28	
30	
31	
35	
24	
21	
29	
22	
27	
24	
25	
39	
34	
18	
19	
20	
40	
22	
35	
28	
27	
28	
25	
24	
22	
29	
20	
32	
20	
23	
25	
20	
43	
21	
28	
30	
22	
30	
22	
19	
24	
16	
29	
24	
17	
25	
26	
32	
34	
23	
26	
34	
33	
14	
28	
25	
22	
30	
30	
27	
28	
31	
25	
22	
30	
17	
22	
29	
31	
18	
24	
20	
30	
24	
23	
30	
24	
19	
20	
22	
28	
34	
26	
23	
23	
23	
21	
24	
22	
26	
19	
25	
21	
24	
23	
20	
32	
26	
27	
35	
24	
25	
21	
31	
30	
25	
28	
26	
34	
25	
26	
20	
26	
35	
27	
28	
22	
18	
23	
32	
21	
33	
24	
24	
30	
20	
30	
25	
32	
17	
33	
27	
25	
22	
29	
24	
35	
32	
17	
26	
29	
23	
17	
19	
19	
22	
21	
18	
24	
21	
19	
26	
24	
20	
23	
21	
19	
25	
27	
19	
22	
11	
26	
28	
28	
18	
26	
29	
20	
15	
24	
19	
18	
25	
21	
27	
20	
21	
25	
23	
22	
25	
18	
17	
19	
24	
22	
22	
20	
25	
22	
21	
26	
20	
18	
18	
35	
24	
23	
18	
23	
34	
24	
15	
29	
19	
12	
24	
26	
23	
23	
22	
13	
28	
24	
23	
26	
21	
20	
19	
13	
23	
17	
20	
20	
24	
17	
21	
19	
15	
24	
24	
25	
22	
16	
26	
24	
23	
16	
29	
21	
12	
27	
24	
18	
21	
21	
19	
14	
18	
16	
20	
28	
14	
14	
19	
17	
16	
20	
24	
20	
22	
22	
19	
27	
21	
18	
21	
17	
27	
20	
21	
16	
17	
19	
23	
12	
26	
21	
17	
19	
11	
16	
22	
25	
13	
18	
19	
13	
15	
19	
17	
23	
16	
21	
20	
28	
18	
23	
24	
17	
12	
18	
19	
15	
23	
25	
20	
19	
20	
16	
25	
29	
16	
22	
17	
27	
17	
27	
17	
22	
14	
12	
11	
17	
25	
11	
25	
16	
19	
14	
18	
25	
18	
18	
25	
22	
11	
24	
18	
14	
21	
14	
26	
12	
15	
15	
16	
23	
18	
14	
24	
18	
14	
20	
21	
19	
20	
7	
15	
20	
13	
16	
15	
16	
19	
24	
16	
21	
25	
17	
20	
17	
20	
22	
11	
21	
14	
18	
20	
18	
17	
22	
14	
21	
24	
24	
18	
18	
20	
15	
14	
23	
16	
14	
21	
26	
21	
22	
21	
18	
14	
7	
15	
16	
18	
15	
16	
16	
19	
20	
16	
22	
20	
19	
11	
17	
11	
14	
21	
26	
20	
18	
18	
17	
14	
17	
19	
15	
20	
17	
17	
14	
14	
17	
13	
22	
19	
17	
21	
17	
21	
14	
13	
17	
15	
23	
25	
16	
13	
17	
23	
19	
15	
12	
12	
9	
10	
23	
18	
20	
20	
14	
17	
25	
19	
15	
15	
19	
16	
16	
8	
19	
24	
19	
9	
11	
15	
22	
20	
17	
16	
23	
17	
13	
14	
19	
10	
24	
16	
18	
10	
17	
15	
24	
12	
20	
18	
20	
14	
16	
9	
10	
14	
18	
19	
19	
20	
18	
20	
19	
13	
20	
9	
23	
21	
13	
12	
10	
9	
15	
11	
10	
15	
11	
21	
13	
4	
15	
12	
20	
7	
14	
17	
10	
19	
12	
22	
13	
14	
10	
12	
16	
17	
17	
15	
12	
9	
18	
13	
26	
19	
11	
9	
8	
14	
10	
21	
20	
26	
15	
10	
19	
12	
19	
14	
13	
22	
14	
19	
16	
10	
21	
12	
18	
17	
18	
20	
11	
18	
16	
20	
13	
12	
10	
17	
13	
19	
21	
15	
24	
19	
11	
16	
6	
16	
20	
16	
24	
16	
6	
16	
13	
18	
8	
16	
13	
18	
13	
13	
16	
10	
12	
12	
10	
15	
17	
16	
15	
7	
15	
14	
20	
15	
15	
17	
18	
12	
15	
15	
18	
11	
18	
8	
14	
11	
12	
16	
10	
6	
13	
11	
22	
7	
16	
17	
19	
16	
21	
9	
15	
13	
15	
12	
11	
14	
14	
12	
21	
20	
7	
12	
11	
18	
12	
18	
7	
11	
11	
12	
15	
13	
11	
9	
10	
12	
11	
18	
9	
15	
13	
15	
13	
16	
17	
15	
12	
20	
13	
17	
11	
10	
17	
13	
12	
8	
19	
17	
21	
15	
9	
18	
11	
13	
13	
16	
12	
14	
8	
12	
15	
13	
18	
17	
8	
15	
16	
12	
9	
15	
17	
10	
22	
7	
18	
13	
10	
9	
13	
11	
9	
14	
12	
13	
12	
22	
8	
14	
11	
8	
14	
11	
16	
15	
15	
9	
17	
15	
7	
11	
12	
9	
14	
10	
11	
10	
14	
15	
7	
21	
9	
16	
14	
12	
14	
9	
10	
18	
10	
9	
12	
12	
12	
15	
12	
9	
12	
12	
10	
13	
10	
11	
12	
14	
14	
8	
14	
7	
17	
8	
11	
15	
10	
15	
17	
7	
12	
16	
12	
15	
13	
13	
8	
9	
12	
10	
13	
8	
11	
8	
12	
14	
13	
8	
7	
13	
12	
14	
15	
15	
12	
12	
4	
17	
11	
14	
15	
10	
16	
8	
17	
14	
9	
10	
13	
12	
11	
13	
16	
10	
14	
13	
14	
12	
10	
12	
13	
11	
13	
11	
13	
13	
12	
6	
11	
11	
14	
13	
11	
12	
15	
14	
14	
11	
8	
12	
14	
11	
9	
14	
9	
12	
17	
13	
9	
10	
14	
9	
11	
11	
14	
6	
11	
16	
13	
10	
12	
8	
6	
11	
14	
15	
11	
6	
15	
13	
14	
13	
8	
15	
7	
10	
9	
14	
11	
12	
8	
10	
9	
8	
11	
7	
8	
11	
10	
14	
12	
17	
8	
8	
10	
9	
10	
12	
9	
12	
3	
6	
15	
9	
16	
13	
7	
8	
7	
5	
21	
10	
8	
9	
8	
7	
8	
11	
13	
13	
7	
8	
10	
9	
10	
8	
4	
9	
15	
9	
6	
8	
7	
14	
12	
14	
6	
11	
8	
7	
7	
7	
7	
10	
12	
9	
11	
12	
9	
10	
12	
6	
11	
10	
12	
10	
7	
6	
14	
13	
9	
9	
7	
12	
10	
8	
12	
12	
9	
17	
8	
13	
6	
9	
10	
12	
9	
13	
14	
9	
7	
7	
10	
7	
12	
9	
8	
6	
10	
11	
8	
16	
13	
9	
13	
14	
14	
15	
6	
8	
13	
7	
11	
12	
9	
11	
18	
11	
13	
17	
11	
9	
11	
12	
9	
6	
17	
11	
15	
7	
7	
12	
7	
9	
11	
6	
11	
10	
11	
5	
9	
8	
6	
14	
9	
9	
11	
12	
6	
12	
11	
12	
5	
7	
7	
8	
8	
14	
10	
8	
12	
3	
4	
5	
12	
8	
12	
8	
10	
7	
11	
17	
9	
11	
11	
9	
9	
7	
7	
11	
7	
5	
9	
11	
10	
5	
12	
9	
11	
11	
9	
8	
5	
10	
6	
7	
6	
8	
11	
11	
6	
7	
9	
11	
8	
7	
14	
6	
16	
10	
12	
12	
11	
4	
8	
7	
14	
9	
12	
5	
8	
12	
6	
9	
8	
6	
8	
16	
8	
7	
7	
9	
6	
8	
10	
9	
8	
11	
5	
6	
7	
11	
6	
10	
7	
13	
9	
6	
7	
6	
12	
9	
3	
8	
8	
12	
9	
7	
10	
10	
9	
5	
7	
14	
11	
9	
9	
14	
11	
8	
13	
7	
10	
6	
5	
12	
8	
7	
8	
14	
8	
19	
7	
4	
5	
9	
6	
8	
13	
10	
6	
17	
13	
9	
16	
12	
7	
8	
6	
11	
11	
10	
8	
12	
10	
6	
11	
7	
8	
7	
6	
12	
9	
12	
10	
12	
5	
8	
8	
12	
4	
6	
5	
8	
12	
3	
10	
6	
10	
8	
3	
8	
3	
10	
11	
7	
14	
13	
7	
13	
8	
4	
8	
18	
13	
11	
11	
13	
10	
10	
12	
8	
13	
7	
16	
5	
3	
7	
8	
5	
10	
7	
10	
7	
15	
13	
7	
12	
9	
13	
13	
9	
6	
5	
11	
10	
4	
6	
10	
13	
7	
7	
13	
7	
3	
11	
7	
11	
11	
8	
9	
9	
7	
7	
10	
5	
12	
13	
7	
6	
5	
11	
13	
7	
11	
12	
8	
6	
10	
8	
5	
5	
14	
8	
14	
9	
7	
9	
10	
15	
12	
8	
6	
8	
6	
9	
9	
6	
3	
9	
8	
7	
11	
9	
12	
5	
9	
3	
10	
8	
11	
5	
8	
9	
7	
14	
7	
13	
16	
5	
1	
7	
13	
8	
5	
15	
5	
2	
6	
9	
12	
9	
9	
7	
8	
7	
12	
8	
8	
9	
4	
7	
10	
8	
13	
2	
14	
14	
5	
9	
6	
9	
9	
8	
10	
10	
9	
10	
8	
9	
8	
10	
13	
4	
7	
12	
11	
10	
10	
9	
14	
9	
7	
15	
5	
10	
9	
14	
9	
5	
4	
10	
8	
12	
4	
1	
7	
5	
7	
6	
6	
6	
7	
15	
8	
6	
9	
9	
8	
8	
10	
6	
8	
10	
10	
8	
8	
7	
9	
14	
9	
8	
12	
5	
7	
10	
10	
10	
6	
6	
4	
8	
5	
15	
8	
7	
8	
8	
7	
10	
7	
2	
7	
5	
9	
3	
11	
11	
8	
6	
9	
8	
7	
8	
13	
9	
7	
8	
6	
7	
10	
10	
8	
6	
6	
11	
9	
6	
7	
4	
8	
4	
10	
10	
12	
4	
4	
6	
7	
7	
6	
5	
11	
6	
6	
5	
7	
6	
5	
8	
9	
8	
6	
4	
5	
7	
9	
4	
9	
9	
9	
8	
7	
7	
5	
2	
10	
11	
6	
6	
7	
4	
9	
4	
5	
8	
10	
7	
8	
7	
9	
5	
7	
5	
8	
7	
4	
13	
8	
9	
6	
5	
9	
10	
4	
4	
4	
5	
6	
8	
8	
7	
3	
9	
9	
7	
7	
6	
9	
9	
6	
6	
8	
9	
10	
13	
4	
4	
7	
2	
4	
5	
8	
6	
5	
6	
4	
8	
9	
7	
15	
4	
6	
10	
3	
8	
9	
7	
4	
7	
6	
11	
5	
3	
7	
6	
7	
8	
5	
7	
7	
7	
1	
3	
8	
5	
8	
3	
7	
10	
7	
6	
3	
6	
9	
6	
9	
8	
6	
10	
9	
9	
9	
6	
7	
12	
5	
4	
3	
10	
6	
5	
5	
5	
1	
4	
9	
6	
6	
7	
6	
6	
7	
8	
8	
3	
4	
4	
7	
9	
9	
6	
3	
8	
5	
8	
7	
9	
4	
5	
6	
3	
7	
10	
8	
7	
8	
4	
3	
1	
9	
6	
10	
5	
9	
6	
6	
3	
10	
5	
6	
0	
8	
9	
6	
2	
7	
5	
5	
7	
8	
8	
6	
7	
5	
7	
5	
8	
2	
7	
2	
7	
7	
8	
5	
6	
5	
3	
8	
3	
6	
4	
6	
6	
5	
10	
8	
4	
7	
7	
12	
8	
7	
4	
5	
9	
10	
7	
6	
8	
3	
4	
9	
7	
6	
6	
6	
10	
7	
5	
4	
3	
9	
4	
5	
7	
7	
6	
4	
10	
4	
8	
1	
5	
8	
3	
6	
2	
5	
4	
3	
6	
7	
10	
7	
11	
6	
5	
7	
3	
8	
5	
7	
6	
6	
8	
2	
5	
1	
13	
8	
6	
4	
7	
4	
7	
3	
3	
2	
5	
4	
4	
7	
5	
4	
4	
4	
8	
11	
8	
5	
4	
7	
2	
2	
6	
7	
2	
11	
14	
3	
9	
5	
7	
0	
5	
10	
4	
3	
5	
3	
4	
7	
5	
3	
5	
6	
7	
12	
12	
4	
8	
4	
8	
6	
10	
10	
4	
3	
10	
8	
9	
10	
3	
2	
9	
3	
3	
5	
8	
10	
5	
8	
6	
9	
8	
8	
9	
7	
6	
9	
9	
6	
4	
3	
4	
6	
3	
1	
7	
5	
3	
10	
6	
8	
10	
7	
6	
4	
7	
3	
8	
11	
5	
2	
7	
6	
6	
11	
4	
5	
7	
4	
7	
9	
10	
6	
1	
4	
6	
5	
3	
4	
4	
3	
3	
4	
4	
6	
4	
7	
3	
3	
8	
4	
7	
3	
4	
3	
4	
6	
5	
5	
6	
3	
4	
3	
1	
2	
5	
5	
6	
4	
11	
3	
6	
5	
3	
11	
5	
2	
6	
6	
6	
4	
3	
5	
7	
7	
4	
4	
6	
2	
4	
5	
12	
3	
10	
3	
5	
8	
10	
6	
4	
3	
5	
6	
7	
7	
7	
7	
8	
3	
5	
10	
3	
6	
5	
5	
4	
5	
4	
4	
7	
1	
3	
9	
6	
5	
11	
5	
9	
8	
10	
6	
5	
4	
3	
4	
5	
4	
5	
5	
6	
4	
9	
8	
7	
7	
1	
6	
6	
6	
6	
2	
7	
6	
4	
4	
8	
3	
6	
3	
5	
5	
4	
6	
7	
7	
6	
3	
4	
7	
3	
4	
5	
2	
6	
7	
7	
8	
6	
6	
1	
4	
8	
3	
3	
7	
5	
3	
6	
4	
6	
5	
5	
7	
6	
2	
8	
4	
11	
6	
5	
9	
3	
1	
3	
6	
4	
5	
8	
4	
5	
5	
6	
8	
7	
8	
6	
1	
7	
4	
2	
6	
5	
4	
7	
7	
2	
5	
7	
4	
5	
3	
8	
6	
10	
10	
5	
7	
3	
2	
5	
8	
3	
6	
9	
5	
8	
6	
4	
6	
6	
9	
10	
2	
4	
3	
2	
4	
2	
6	
2	
4	
5	
4	
6	
3	
5	
2	
4	
5	
5	
5	
4	
8	
9	
7	
4	
4	
6	
6	
9	
1	
11	
10	
2	
6	
5	
6	
3	
1	
6	
10	
11	
6	
6	
1	
6	
3	
4	
4	
2	
3	
4	
3	
8	
5	
6	
3	
5	
5	
4	
5	
3	
4	
1	
4	
5	
5	
5	
2	
5	
3	
5	
4	
2	
2	
6	
5	
8	
4	
7	
7	
3	
4	
2	
4	
5	
8	
4	
3	
5	
6	
3	
6	
7	
2	
3	
4	
2	
11	
6	
6	
6	
5	
4	
4	
6	
6	
6	
5	
4	
7	
8	
2	
3	
4	
3	
2	
2	
9	
4	
2	
3	
3	
3	
6	
5	
1	
5	
5	
6	
1	
7	
3	
1	
7	
6	
3	
5	
6	
2	
4	
2	
6	
4	
7	
4	
5	
6	
2	
1	
3	
5	
6	
2	
2	
9	
9	
4	
6	
5	
8	
7	
9	
1	
7	
6	
8	
7	
5	
3	
4	
2	
8	
6	
4	
8	
1	
4	
7	
4	
2	
5	
5	
5	
9	
3	
4	
3	
6	
4	
2	
2	
4	
4	
3	
6	
7	
4	
6	
3	
6	
1	
3	
1	
7	
6	
6	
4	
6	
1	
9	
2	
8	
3	
7	
5	
6	
3	
4	
3	
8	
12	
2	
4	
4	
5	
2	
6	
1	
5	
3	
4	
4	
2	
5	
3	
7	
7	
1	
11	
5	
9	
5	
6	
4	
4	
3	
4	
5	
8	
4	
2	
5	
8	
6	
3	
6	
5	
7	
10	
0	
5	
5	
5	
3	
4	
4	
7	
7	
0	
3	
3	
9	
5	
7	
3	
3	
2	
4	
5	
4	
3	
4	
4	
7	
2	
6	
2	
5	
6	
6	
4	
7	
2	
7	
5	
8	
6	
6	
7	
6	
2	
6	
2	
4	
5	
2	
6	
6	
6	
6	
8	
5	
2	
3	
3	
6	
4	
4	
2	
5	
4	
4	
3	
7	
6	
7	
4	
3	
5	
2	
4	
3	
3	
7	
10	
7	
2	
3	
3	
1	
5	
2	
1	
5	
2	
3	
3	
2	
9	
9	
3	
5	
5	
8	
3	
5	
4	
2	
3	
10	
2	
4	
6	
5	
5	
5	
8	
2	
4	
7	
2	
6	
5	
5	
7	
3	
2	
6	
5	
8	
10	
8	
4	
5	
6	
3	
3	
11	
5	
3	
4	
8	
6	
7	
3	
3	
5	
1	
5	
5	
7	
6	
9	
4	
5	
5	
3	
6	
4	
5	
6	
6	
3	
4	
4	
0	
3	
1	
6	
5	
5	
4	
5	
5	
1	
6	
6	
5	
5	
5	
7	
3	
6	
7	
2	
3	
3	
5	
4	
5	
2	
5	
5	
5	
2	
6	
6	
3	
8	
4	
5	
3	
5	
2	
2	
11	
4	
3	
5	
3	
7	
7	
5	
3	
8	
4	
0	
4	
3	
1	
4	
2	
3	
6	
2	
4	
7	
2	
6	
5	
4	
8	
4	
2	
8	
7	
5	
3	
4	
5	
2	
0	
3	
2	
5	
6	
1	
3	
5	
3	
2	
2	
3	
1	
7	
5	
1	
3	
5	
2	
4	
9	
5	
1	
2	
7	
2	
2	
4	
3	
4	
4	
1	
2	
3	
0	
2	
3	
5	
5	
6	
3	
2	
4	
1	
4	
3	
0	
8	
5	
5	
1	
5	
7	
0	
3	
1	
3	
3	
2	
2	
3	
5	
3	
1	
2	
5	
4	
5	
5	
1	
4	
5	
5	
1	
5	
2	
3	
7	
3	
2	
6	
4	
2	
4	
5	
7	
6	
2	
2	
7	
2	
2	
3	
4	
4	
4	
1	
1	
6	
2	
5	
1	
6	
6	
4	
1	
8	
3	
4	
6	
4	
9	
4	
4	
4	
1	
3	
5	
2	
3	
7	
5	
3	
3	
2	
4	
4	
7	
5	
2	
7	
6	
3	
1	
3	
5	
5	
2	
4	
5	
2	
3	
1	
5	
3	
3	
3	
7	
2	
4	
5	
1	
0	
3	
1	
6	
1	
3	
2	
4	
2	
8	
5	
5	
3	
4	
4	
5	
3	
3	
4	
5	
1	
5	
2	
7	
3	
1	
5	
5	
4	
1	
9	
6	
1	
4	
0	
1	
2	
5	
3	
1	
6	
3	
5	
4	
4	
1	
2	
3	
5	
4	
4	
4	
4	
3	
3	
7	
5	
6	
7	
2	
2	
4	
2	
5	
7	
5	
2	
3	
5	
4	
4	
5	
1	
1	
2	
3	
4	
2	
4	
8	
5	
9	
5	
0	
1	
5	
3	
3	
3	
6	
2	
5	
2	
5	
4	
4	
5	
3	
4	
4	
5	
3	
6	
5	
3	
4	
4	
4	
6	
2	
1	
6	
3	
1	
5	
4	
4	
0	
7	
0	
5	
2	
3	
0	
5	
3	
3	
8	
0	
3	
1	
1	
3	
1	
5	
0	
4	
6	
4	
4	
4	
1	
5	
4	
4	
5	
5	
3	
4	
2	
5	
3	
6	
5	
2	
8	
3	
1	
3	
5	
3	
4	
6	
2	
5	
5	
4	
2	
5	
4	
1	
5	
5	
5	
5	
3	
3	
3	
1	
7	
2	
6	
1	
4	
5	
4	
5	
5	
4	
5	
7	
2	
2	
4	
2	
1	
3	
5	
1	
1	
6	
1	
4	
3	
4	
5	
2	
5	
4	
2	
3	
3	
3	
4	
3	
3	
5	
3	
4	
4	
7	
4	
2	
4	
2	
2	
4	
2	
8	
8	
0	
2	
3	
0	
4	
3	
4	
3	
2	
4	
4	
6	
5	
7	
6	
3	
4	
4	
1	
3	
4	
0	
5	
1	
3	
3	
4	
4	
3	
3	
5	
3	
3	
2	
2	
5	
1	
4	
4	
2	
2	
2	
7	
5	
5	
3	
3	
1	
6	
3	
1	
3	
3	
7	
4	
6	
3	
6	
3	
2	
6	
4	
3	
3	
2	
4	
7	
5	
0	
0	
1	
2	
4	
5	
3	
3	
1	
3	
1	
5	
6	
5	
5	
3	
4	
5	
3	
5	
7	
2	
2	
7	
5	
3	
1	
6	
1	
3	
3	
2	
8	
1	
1	
4	
3	
2	
5	
5	
4	
1	
4	
3	
4	
3	
3	
2	
1	
3	
4	
3	
2	
8	
3	
4	
5	
2	
1	
2	
4	
3	
4	
3	
2	
3	
5	
4	
4	
2	
3	
3	
8	
3	
2	
2	
4	
7	
5	
0	
1	
3	
4	
4	
3	
3	
5	
3	
3	
2	
3	
6	
2	
5	
2	
5	
5	
8	
2	
2	
1	
2	
2	
1	
4	
2	
6	
3	
4	
4	
6	
4	
4	
0	
2	
3	
3	
4	
2	
1	
2	
5	
6	
5	
4	
1	
1	
1	
0	
3	
3	
3	
4	
2	
2	
3	
0	
2	
2	
3	
6	
3	
3	
0	
3	
4	
1	
7	
5	
0	
5	
4	
2	
3	
3	
2	
3	
6	
3	
2	
3	
2	
3	
3	
5	
1	
1	
4	
1	
5	
2	
3	
1	
3	
4	
3	
1	
3	
8	
6	
4	
2	
1	
2	
2	
4	
1	
4	
3	
5	
4	
1	
2	
3	
9	
3	
3	
5	
3	
5	
1	
2	
4	
1	
1	
0	
4	
4	
2	
5	
3	
4	
7	
4	
4	
2	
3	
7	
2	
1	
5	
0	
10	
5	
5	
2	
2	
4	
2	
5	
3	
2	
5	
5	
3	
2	
2	
5	
4	
6	
2	
2	
6	
3	
1	
1	
3	
2	
3	
1	
0	
6	
4	
3	
2	
4	
0	
2	
1	
2	
2	
6	
2	
3	
4	
4	
5	
4	
6	
2	
2	
2	
2	
8	
1	
0	
4	
4	
0	
2	
5	
2	
4	
3	
1	
2	
4	
2	
2	
3	
4	
2	
1	
12	
3	
5	
6	
2	
0	
2	
4	
3	
4	
4	
1	
7	
5	
4	
4	
2	
1	
2	
6	
4	
0	
6	
6	
1	
1	
3	
3	
7	
5	
1	
3	
6	
3	
3	
2	
4	
4	
4	
4	
5	
8	
7	
6	
2	
6	
4	
1	
4	
1	
2	
3	
6	
1	
3	
2	
4	
3	
2	
3	
2	
2	
7	
4	
4	
4	
4	
4	
2	
5	
3	
4	
2	
1	
3	
3	
2	
6	
3	
5	
2	
2	
1	
5	
2	
4	
4	
7	
4	
2	
5	
1	
2	
2	
0	
1	
3	
2	
2	
5	
5	
2	
2	
5	
1	
3	
5	
5	
0	
4	
7	
2	
4	
3	
3	
9	
4	
3	
3	
2	
4	
3	
2	
6	
1	
4	
4	
3	
3	
6	
7	
6	
5	
2	
3	
0	
3	
1	
1	
2	
2	
4	
5	
5	
4	
5	
3	
5	
4	
6	
4	
1	
1	
4	
0	
2	
3	
1	
5	
4	
3	
4	
2	
1	
3	
1	
0	
3	
4	
4	
1	
2	
4	
1	
1	
2	
5	
2	
3	
4	
4	
0	
3	
2	
2	
5	
2	
2	
2	
4	
4	
5	
2	
3	
3	
3	
4	
4	
2	
4	
3	
1	
0	
4	
5	
4	
2	
1	
1	
4	
2	
5	
4	
3	
3	
3	
2	
4	
2	
4	
2	
2	
2	
1	
2	
3	
4	
2	
6	
4	
2	
3	
2	
8	
6	
0	
2	
1	
1	
3	
3	
3	
3	
1	
3	
3	
5	
2	
4	
6	
3	
1	
2	
1	
2	
3	
2	
2	
2	
2	
2	
7	
5	
5	
9	
1	
5	
2	
3	
3	
2	
2	
4	
5	
0	
4	
5	
0	
2	
4	
4	
5	
3	
0	
1	
1	
4	
4	
7	
1	
2	
4	
4	
4	
4	
4	
4	
1	
2	
3	
3	
2	
4	
2	
1	
2	
4	
3	
2	
1	
3	
3	
8	
4	
3	
4	
1	
2	
1	
3	
4	
6	
3	
3	
2	
1	
6	
2	
4	
3	
5	
1	
5	
4	
2	
6	
1	
2	
3	
2	
4	
0	
3	
3	
3	
2	
2	
2	
3	
4	
4	
5	
4	
3	
3	
6	
3	
6	
4	
3	
2	
1	
5	
1	
2	
7	
3	
5	
5	
2	
1	
4	
1	
3	
4	
3	
5	
2	
3	
3	
4	
3	
5	
4	
5	
2	
4	
8	
2	
3	
4	
4	
3	
3	
3	
3	
5	
3	
4	
8	
1	
3	
3	
2	
2	
1	
3	
2	
2	
5	
3	
0	
3	
1	
4	
2	
3	
4	
1	
2	
1	
2	
7	
3	
1	
0	
2	
4	
3	
1	
4	
6	
3	
2	
1	
2	
4	
4	
4	
2	
2	
6	
6	
5	
3	
4	
2	
0	
3	
3	
2	
4	
3	
6	
7	
3	
2	
1	
7	
4	
3	
2	
0	
5	
5	
4	
2	
3	
3	
8	
5	
1	
1	
0	
3	
3	
5	
1	
2	
1	
3	
3	
2	
0	
2	
3	
2	
3	
2	
1	
1	
1	
3	
0	
2	
1	
2	
1	
4	
5	
5	
1	
5	
3	
3	
1	
2	
2	
1	
3	
4	
2	
1	
7	
4	
3	
1	
3	
5	
0	
1	
2	
1	
3	
0	
3	
2	
3	
2	
8	
3	
0	
4	
1	
2	
4	
1	
2	
4	
3	
0	
2	
2	
1	
3	
2	
1	
4	
3	
3	
2	
7	
1	
2	
2	
3	
3	
2	
0	
5	
4	
1	
1	
0	
4	
2	
1	
2	
2	
0	
2	
2	
1	
3	
1	
2	
3	
2	
3	
5	
3	
1	
2	
2	
4	
7	
3	
4	
3	
0	
0	
5	
2	
1	
1	
3	
1	
1	
3	
3	
1	
1	
1	
0	
5	
1	
3	
2	
3	
1	
3	
2	
4	
3	
2	
3	
5	
1	
2	
7	
0	
4	
2	
2	
2	
3	
1	
7	
6	
1	
0	
2	
1	
5	
2	
1	
4	
4	
3	
1	
3	
3	
0	
4	
1	
3	
6	
4	
7	
3	
2	
0	
3	
3	
3	
0	
2	
2	
4	
3	
4	
3	
3	
10	
0	
2	
2	
4	
1	
6	
4	
3	
1	
3	
1	
4	
4	
2	
3	
8	
3	
1	
2	
2	
2	
1	
1	
1	
1	
2	
2	
2	
2	
3	
5	
4	
1	
2	
2	
1	
0	
4	
4	
1	
4	
1	
5	
2	
0	
2	
2	
2	
1	
6	
4	
1	
2	
1	
1	
5	
1	
3	
7	
3	
2	
5	
5	
5	
1	
1	
2	
1	
2	
2	
3	
5	
3	
3	
5	
3	
3	
4	
3	
1	
3	
3	
2	
4	
4	
4	
3	
4	
2	
3	
4	
3	
2	
0	
5	
1	
2	
2	
2	
3	
4	
3	
3	
1	
2	
3	
3	
5	
1	
2	
5	
5	
3	
2	
1	
4	
1	
4	
2	
1	
2	
3	
0	
4	
3	
0	
1	
3	
5	
1	
2	
2	
0	
2	
0	
2	
3	
2	
3	
1	
2	
4	
3	
6	
2	
0	
0	
3	
2	
1	
2	
2	
2	
3	
2	
3	
3	
5	
1	
0	
0	
3	
4	
4	
2	
2	
1	
4	
3	
1	
7	
2	
4	
2	
4	
0	
2	
3	
3	
4	
5	
5	
2	
1	
3	
3	
5	
3	
0	
5	
4	
1	
4	
1	
3	
7	
4	
1	
3	
2	
1	
2	
3	
4	
2	
1	
1	
3	
1	
3	
1	
3	
1	
5	
4	
4	
2	
4	
2	
1	
2	
3	
1	
2	
7	
1	
3	
2	
2	
1	
2	
2	
4	
4	
2	
3	
8	
6	
4	
4	
3	
4	
4	
2	
3	
3	
2	
3	
7	
2	
0	
3	
1	
3	
4	
1	
1	
2	
1	
2	
1	
2	
1	
2	
8	
2	
3	
1	
2	
2	
2	
2	
2	
2	
2	
3	
2	
6	
0	
1	
1	
4	
3	
6	
4	
0	
2	
2	
3	
3	
2	
6	
3	
3	
3	
5	
5	
1	
2	
1	
0	
2	
2	
4	
2	
6	
1	
1	
0	
4	
3	
3	
0	
2	
0	
2	
2	
1	
0	
1	
2	
0	
1	
2	
3	
3	
1	
1	
8	
3	
3	
4	
3	
3	
1	
4	
2	
3	
2	
2	
0	
4	
1	
2	
2	
3	
1	
3	
5	
5	
6	
1	
0	
2	
0	
4	
3	
0	
3	
2	
4	
6	
1	
4	
1	
2	
4	
1	
0	
2	
3	
2	
2	
0	
4	
1	
5	
0	
4	
1	
3	
6	
1	
0	
0	
0	
1	
1	
2	
3	
2	
1	
2	
0	
1	
3	
1	
1	
2	
5	
3	
2	
2	
1	
3	
2	
0	
2	
1	
4	
1	
1	
4	
3	
1	
3	
5	
0	
2	
4	
3	
1	
2	
5	
2	
2	
1	
3	
1	
1	
2	
0	
2	
1	
0	
5	
2	
4	
1	
4	
3	
0	
1	
2	
2	
3	
3	
3	
2	
4	
4	
3	
1	
1	
2	
7	
3	
1	
1	
3	
4	
3	
4	
3	
3	
3	
3	
5	
0	
2	
2	
2	
2	
1	
1	
4	
4	
3	
4	
4	
0	
1	
2	
0	
3	
1	
2	
0	
3	
0	
2	
6	
2	
1	
2	
1	
1	
3	
2	
3	
2	
0	
0	
1	
1	
2	
8	
3	
0	
3	
5	
1	
3	
7	
2	
1	
1	
0	
3	
1	
5	
2	
1	
2	
2	
1	
0	
3	
6	
2	
1	
2	
2	
3	
2	
1	
1	
4	
3	
4	
1	
2	
1	
1	
1	
2	
1	
3	
1	
2	
2	
0	
2	
5	
4	
3	
0	
1	
1	
2	
3	
4	
2	
1	
1	
4	
1	
2	
4	
4	
1	
1	
0	
3	
2	
1	
3	
3	
3	
4	
0	
2	
4	
3	
1	
2	
2	
2	
2	
0	
1	
4	
4	
1	
2	
0	
1	
3	
4	
1	
3	
1	
2	
1	
2	
3	
5	
2	
3	
1	
4	
3	
1	
5	
0	
2	
3	
1	
2	
3	
2	
2	
3	
2	
4	
2	
3	
2	
4	
1	
2	
2	
1	
1	
4	
2	
2	
2	
6	
2	
2	
1	
1	
2	
0	
5	
3	
3	
3	
4	
4	
4	
5	
1	
2	
2	
3	
2	
1	
1	
2	
2	
0	
4	
3	
1	
2	
2	
3	
2	
2	
1	
1	
2	
3	
0	
2	
0	
2	
2	
3	
2	
4	
2	
3	
1	
0	
1	
2	
4	
3	
3	
2	
2	
1	
3	
0	
3	
3	
1	
1	
1	
1	
2	
1	
5	
1	
3	
4	
2	
3	
2	
2	
0	
2	
3	
1	
2	
2	
4	
1	
3	
1	
1	
5	
0	
3	
2	
3	
2	
3	
2	
3	
1	
3	
2	
5	
1	
3	
0	
2	
1	
4	
0	
2	
1	
3	
1	
0	
2	
5	
2	
3	
0	
1	
2	
2	
0	
4	
4	
2	
4	
1	
1	
0	
1	
2	
4	
5	
0	
3	
4	
4	
2	
3	
2	
1	
0	
3	
1	
0	
5	
2	
2	
4	
6	
5	
3	
2	
0	
1	
0	
1	
0	
5	
1	
6	
5	
2	
3	
3	
4	
3	
1	
0	
2	
2	
1	
3	
0	
1	
0	
1	
5	
4	
1	
0	
0	
1	
1	
4	
1	
2	
2	
2	
2	
1	
1	
4	
2	
0	
3	
2	
3	
4	
2	
2	
5	
1	
2	
2	
5	
4	
4	
3	
1	
4	
1	
1	
1	
1	
5	
0	
1	
5	
1	
6	
1	
3	
5	
1	
2	
1	
1	
4	
2	
4	
6	
1	
1	
2	
4	
2	
0	
0	
2	
4	
1	
1	
1	
3	
3	
3	
4	
0	
3	
1	
4	
1	
2	
2	
4	
1	
1	
2	
2	
1	
4	
1	
3	
3	
3	
2	
2	
1	
3	
2	
2	
1	
0	
4	
2	
4	
2	
3	
1	
0	
2	
4	
3	
1	
1	
2	
1	
5	
1	
1	
2	
2	
3	
4	
2	
3	
2	
0	
3	
1	
1	
0	
1	
2	
1	
1	
0	
1	
2	
3	
0	
1	
2	
1	
1	
3	
1	
2	
0	
4	
0	
3	
4	
2	
5	
0	
3	
1	
4	
2	
0	
5	
2	
1	
2	
3	
3	
1	
2	
1	
1	
2	
0	
1	
2	
2	
1	
2	
5	
1	
2	
3	
2	
2	
2	
1	
2	
0	
2	
1	
1	
0	
2	
1	
2	
4	
3	
2	
2	
3	
3	
1	
2	
2	
0	
1	
2	
1	
2	
4	
1	
1	
2	
3	
5	
0	
4	
1	
2	
0	
2	
1	
1	
0	
1	
2	
2	
3	
2	
3	
2	
1	
1	
3	
3	
1	
0	
6	
1	
0	
0	
1	
2	
1	
3	
3	
1	
4	
3	
1	
2	
4	
2	
6	
2	
1	
0	
2	
1	
1	
2	
4	
1	
1	
3	
1	
2	
0	
2	
3	
3	
4	
2	
2	
0	
2	
2	
1	
5	
2	
2	
3	
2	
1	
0	
1	
3	
2	
6	
1	
3	
1	
2	
3	
4	
3	
1	
3	
3	
4	
1	
0	
2	
1	
1	
1	
3	
2	
3	
2	
4	
2	
4	
3	
3	
0	
2	
3	
1	
5	
1	
4	
3	
2	
1	
0	
1	
3	
1	
1	
2	
2	
0	
3	
0	
2	
1	
1	
1	
2	
3	
0	
3	
2	
2	
1	
3	
3	
5	
0	
2	
5	
4	
1	
4	
1	
2	
0	
3	
2	
2	
1	
4	
0	
0	
0	
3	
3	
4	
2	
2	
2	
2	
4	
2	
2	
1	
2	
1	
2	
1	
1	
2	
1	
1	
1	
0	
3	
1	
3	
2	
2	
1	
1	
3	
4	
1	
3	
2	
2	
4	
4	
2	
2	
0	
0	
3	
2	
1	
2	
3	
1	
0	
3	
1	
3	
3	
5	
0	
0	
3	
4	
3	
5	
1	
1	
3	
1	
1	
1	
3	
3	
3	
0	
2	
3	
1	
1	
2	
2	
1	
2	
1	
1	
2	
2	
3	
2	
1	
2	
2	
3	
3	
1	
2	
1	
0	
3	
1	
0	
2	
1	
2	
0	
1	
3	
2	
5	
2	
2	
3	
1	
3	
1	
4	
0	
0	
2	
2	
4	
6	
3	
5	
2	
3	
2	
1	
2	
1	
1	
3	
2	
2	
2	
1	
2	
2	
1	
2	
3	
0	
0	
3	
1	
2	
5	
0	
0	
4	
1	
0	
1	
1	
3	
2	
3	
4	
4	
1	
2	
1	
2	
3	
3	
3	
1	
2	
2	
2	
5	
2	
1	
1	
4	
4	
0	
7	
2	
4	
0	
3	
2	
2	
0	
2	
3	
1	
1	
2	
0	
4	
0	
1	
0	
2	
2	
4	
2	
0	
1	
0	
1	
1	
1	
1	
3	
2	
1	
3	
1	
1	
2	
1	
1	
1	
0	
0	
4	
2	
1	
2	
3	
2	
3	
1	
2	
1	
2	
3	
4	
1	
4	
2	
0	
2	
4	
2	
2	
5	
3	
1	
3	
4	
2	
2	
0	
2	
1	
0	
6	
2	
4	
2	
1	
1	
4	
0	
0	
3	
1	
2	
3	
3	
2	
1	
1	
2	
3	
1	
5	
4	
2	
2	
2	
5	
1	
0	
3	
0	
0	
5	
3	
1	
0	
0	
1	
3	
1	
2	
2	
4	
2	
3	
3	
2	
2	
2	
3	
6	
2	
2	
2	
4	
1	
3	
1	
3	
2	
1	
1	
0	
4	
0	
2	
0	
4	
2	
1	
3	
1	
1	
1	
3	
4	
0	
4	
3	
2	
1	
1	
3	
1	
3	
0	
1	
3	
1	
4	
3	
3	
2	
4	
3	
1	
4	
2	
2	
1	
1	
2	
3	
2	
2	
1	
2	
2	
1	
2	
1	
1	
4	
1	
5	
2	
5	
2	
3	
2	
2	
1	
2	
3	
0	
1	
1	
2	
1	
2	
6	
3	
1	
4	
1	
2	
3	
0	
1	
3	
1	
0	
1	
1	
4	
0	
5	
3	
2	
2	
5	
2	
4	
3	
2	
5	
0	
1	
4	
2	
3	
5	
0	
3	
1	
2	
3	
2	
2	
3	
4	
1	
2	
1	
1	
1	
2	
2	
1	
1	
2	
5	
1	
3	
0	
1	
3	
4	
1	
3	
0	
4	
3	
2	
1	
5	
2	
3	
3	
4	
1	
1	
1	
4	
1	
2	
3	
3	
2	
4	
1	
0	
4	
2	
2	
2	
1	
0	
1	
3	
2	
0	
3	
2	
5	
2	
3	
1	
5	
2	
2	
0	
1	
1	
1	
4	
2	
0	
0	
1	
2	
3	
1	
2	
1	
2	
3	
4	
3	
1	
0	
1	
1	
1	
2	
1	
6	
1	
0	
4	
1	
3	
1	
3	
1	
1	
2	
3	
0	
2	
3	
1	
4	
2	
2	
3	
2	
3	
1	
0	
1	
1	
3	
2	
0	
1	
2	
1	
2	
1	
1	
1	
1	
2	
3	
1	
1	
2	
4	
6	
1	
0	
1	
2	
0	
2	
2	
0	
3	
3	
0	
3	
1	
0	
1	
2	
5	
1	
2	
3	
1	
2	
2	
0	
3	
2	
1	
2	
2	
1	
0	
4	
0	
3	
3	
3	
2	
1	
4	
1	
0	
1	
1	
2	
1	
1	
4	
2	
1	
5	
3	
0	
0	
3	
0	
3	
3	
4	
2	
3	
2	
1	
1	
2	
1	
1	
3	
2	
2	
0	
1	
2	
2	
4	
3	
3	
0	
0	
6	
0	
2	
2	
1	
2	
1	
4	
0	
6	
3	
3	
6	
2	
1	
3	
3	
2	
0	
0	
3	
4	
5	
2	
0	
2	
0	
0	
1	
3	
2	
3	
4	
1	
2	
2	
2	
2	
0	
2	
1	
2	
3	
4	
0	
0	
3	
0	
4	
1	
1	
2	
4	
1	
2	
2	
6	
2	
0	
1	
2	
2	
2	
3	
1	
0	
2	
2	
3	
2	
3	
2	
2	
3	
3	
1	
2	
5	
2	
1	
4	
2	
3	
2	
1	
2	
2	
1	
2	
3	
4	
1	
3	
0	
3	
1	
4	
1	
2	
0	
1	
4	
2	
1	
0	
2	
0	
0	
0	
3	
0	
2	
0	
3	
1	
2	
2	
2	
3	
2	
0	
2	
2	
0	
2	
3	
5	
1	
1	
2	
4	
4	
0	
1	
1	
3	
1	
2	
3	
2	
5	
0	
0	
3	
2	
0	
1	
2	
1	
0	
0	
3	
4	
3	
2	
1	
3	
2	
1	
2	
2	
0	
1	
2	
0	
0	
0	
2	
1	
1	
3	
0	
0	
1	
1	
3	
2	
3	
1	
3	
3	
4	
0	
3	
1	
1	
2	
1	
0	
0	
0	
1	
4	
3	
2	
2	
2	
3	
2	
3	
2	
2	
1	
1	
2	
4	
2	
1	
1	
5	
1	
2	
1	
2	
5	
2	
3	
3	
2	
1	
1	
1	
1	
2	
3	
0	
4	
5	
4	
1	
5	
2	
1	
3	
1	
2	
2	
2	
3	
2	
1	
1	
3	
2	
0	
0	
1	
4	
1	
4	
2	
2	
3	
2	
1	
3	
3	
1	
1	
2	
4	
3	
3	
3	
2	
0	
0	
6	
0	
4	
1	
0	
0	
4	
3	
3	
3	
3	
2	
2	
4	
1	
1	
0	
3	
4	
0	
5	
0	
4	
0	
3	
3	
2	
3	
2	
3	
3	
2	
4	
0	
2	
2	
2	
3	
0	
2	
0	
3	
1	
2	
3	
0	
1	
1	
1	
1	
3	
3	
2	
4	
1	
2	
2	
2	
4	
1	
1	
3	
0	
0	
1	
3	
2	
1	
3	
0	
4	
2	
0	
1	
2	
1	
5	
1	
1	
5	
5	
1	
2	
3	
0	
1	
6	
1	
1	
1	
5	
3	
2	
0	
2	
0	
1	
0	
1	
1	
4	
2	
4	
1	
2	
4	
0	
3	
3	
2	
2	
0	
1	
3	
1	
2	
2	
1	
1	
3	
4	
3	
2	
4	
3	
0	
2	
1	
3	
2	
0	
1	
2	
3	
1	
1	
2	
2	
3	
0	
3	
1	
3	
2	
2	
2	
1	
0	
2	
1	
2	
4	
2	
3	
2	
1	
2	
0	
2	
2	
2	
3	
3	
0	
1	
2	
2	
2	
1	
2	
3	
2	
2	
4	
2	
4	
6	
1	
1	
1	
2	
3	
1	
0	
3	
4	
1	
2	
1	
0	
2	
2	
1	
0	
2	
2	
1	
1	
0	
1	
3	
3	
0	
2	
2	
3	
0	
1	
2	
1	
2	
4	
3	
1	
2	
0	
1	
1	
2	
3	
1	
3	
1	
0	
0	
1	
3	
0	
2	
0	
2	
1	
0	
0	
0	
2	
3	
1	
3	
1	
0	
3	
0	
1	
2	
1	
3	
5	
1	
5	
0	
4	
1	
3	
0	
1	
1	
2	
1	
1	
1	
1	
3	
1	
2	
3	
2	
2	
0	
0	
2	
1	
2	
2	
2	
5	
1	
1	
1	
2	
1	
0	
2	
3	
2	
1	
0	
3	
0	
1	
1	
0	
2	
1	
1	
3	
1	
3	
0	
1	
1	
2	
0	
1	
4	
1	
2	
2	
3	
1	
3	
3	
1	
0	
2	
2	
0	
1	
2	
0	
1	
0	
3	
3	
2	
1	
1	
3	
4	
1	
3	
2	
3	
3	
1	
0	
1	
0	
0	
1	
2	
1	
1	
0	
4	
2	
0	
2	
2	
2	
0	
1	
3	
0	
2	
2	
5	
3	
2	
3	
3	
2	
0	
0	
1	
1	
1	
1	
0	
3	
0	
0	
4	
3	
3	
1	
2	
1	
2	
2	
1	
0	
1	
4	
2	
2	
3	
2	
0	
0	
3	
5	
2	
2	
0	
4	
4	
2	
2	
2	
2	
2	
2	
1	
4	
1	
2	
0	
1	
2	
1	
2	
4	
4	
3	
3	
0	
1	
0	
3	
2	
3	
3	
4	
1	
0	
0	
1	
2	
3	
1	
2	
1	
1	
0	
4	
0	
3	
1	
2	
2	
3	
1	
1	
1	
3	
0	
1	
1	
5	
2	
3	
3	
4	
1	
1	
3	
0	
3	
1	
0	
3	
2	
2	
1	
2	
2	
1	
1	
1	
2	
2	
1	
1	
4	
1	
2	
1	
1	
2	
1	
1	
1	
2	
1	
2	
3	
1	
1	
1	
3	
0	
4	
4	
2	
2	
3	
0	
1	
1	
1	
2	
0	
2	
2	
3	
2	
2	
0	
0	
2	
3	
0	
4	
1	
1	
1	
2	
3	
0	
1	
1	
3	
2	
3	
2	
0	
2	
1	
3	
2	
0	
1	
0	
0	
5	
1	
1	
4	
1	
3	
1	
1	
3	
1	
1	
1	
3	
3	
2	
2	
1	
1	
0	
0	
0	
1	
2	
1	
3	
0	
1	
0	
1	
1	
3	
3	
2	
4	
3	
0	
3	
2	
3	
0	
0	
1	
2	
0	
1	
3	
3	
2	
2	
2	
3	
4	
3	
1	
2	
2	
2	
1	
1	
0	
2	
4	
2	
2	
2	
4	
4	
1	
3	
3	
2	
2	
2	
1	
1	
0	
0	
3	
2	
2	
0	
0	
4	
2	
3	
4	
0	
2	
3	
1	
1	
2	
1	
0	
2	
2	
2	
1	
3	
2	
1	
1	
2	
0	
0	
3	
2	
2	
2	
5	
1	
0	
3	
0	
2	
2	
2	
3	
3	
2	
1	
1	
1	
6	
2	
2	
1	
0	
4	
3	
2	
0	
1	
3	
2	
4	
1	
3	
2	
1	
1	
2	
3	
0	
5	
1	
2	
0	
2	
1	
2	
3	
0	
0	
2	
0	
2	
0	
3	
0	
4	
1	
1	
1	
1	
0	
0	
1	
2	
2	
3	
2	
1	
1	
3	
2	
0	
3	
1	
2	
1	
0	
2	
0	
0	
1	
4	
1	
2	
0	
2	
1	
0	
1	
4	
0	
0	
1	
0	
3	
2	
2	
2	
2	
0	
6	
2	
2	
2	
4	
0	
2	
0	
3	
0	
0	
1	
2	
4	
1	
4	
1	
2	
2	
3	
3	
3	
1	
1	
3	
4	
0	
3	
1	
1	
2	
1	
2	
2	
3	
2	
2	
1	
4	
3	
1	
3	
2	
0	
1	
2	
1	
3	
0	
0	
1	
2	
2	
4	
1	
2	
0	
2	
1	
2	
2	
2	
0	
3	
2	
1	
2	
1	
1	
2	
1	
0	
1	
1	
0	
2	
3	
0	
3	
2	
1	
0	
3	
1	
2	
1	
1	
4	
2	
2	
3	
0	
1	
3	
0	
1	
1	
4	
3	
2	
3	
1	
1	
0	
1	
0	
1	
2	
2	
1	
2	
0	
3	
1	
2	
1	
2	
0	
2	
1	
0	
0	
1	
1	
1	
1	
2	
0	
3	
3	
2	
2	
1	
0	
2	
2	
4	
1	
0	
3	
2	
0	
1	
2	
3	
0	
0	
0	
2	
1	
1	
1	
2	
3	
0	
2	
0	
3	
2	
0	
3	
2	
1	
2	
3	
3	
0	
5	
2	
1	
2	
1	
1	
3	
2	
4	
3	
0	
1	
1	
0	
0	
5	
2	
2	
0	
3	
0	
5	
0	
2	
2	
2	
3	
0	
1	
2	
1	
3	
2	
1	
2	
0	
0	
3	
2	
4	
1	
1	
4	
2	
1	
0	
0	
2	
1	
1	
0	
2	
0	
2	
2	
1	
0	
3	
3	
0	
3	
0	
3	
2	
3	
2	
3	
2	
2	
3	
3	
2	
2	
1	
2	
2	
2	
1	
0	
2	
1	
3	
0	
1	
0	
6	
3	
2	
1	
2	
1	
1	
0	
0	
3	
2	
1	
0	
2	
1	
0	
4	
1	
1	
3	
1	
1	
2	
2	
0	
1	
1	
1	
3	
1	
0	
2	
3	
0	
2	
3	
4	
4	
1	
1	
0	
2	
0	
1	
2	
1	
4	
1	
2	
1	
2	
3	
2	
1	
2	
2	
0	
3	
1	
5	
0	
0	
0	
0	
2	
2	
0	
2	
0	
5	
2	
4	
3	
0	
1	
2	
2	
1	
5	
1	
2	
0	
2	
3	
2	
1	
1	
0	
2	
1	
3	
0	
2	
2	
4	
2	
0	
3	
1	
0	
1	
0	
1	
0	
0	
0	
1	
1	
0	
2	
1	
2	
1	
0	
3	
2	
1	
1	
1	
3	
0	
2	
0	
2	
2	
2	
1	
0	
0	
1	
1	
1	
0	
1	
0	
3	
1	
0	
5	
0	
2	
2	
2	
1	
1	
5	
3	
1	
1	
0	
3	
1	
0	
4	
0	
2	
4	
1	
2	
1	
4	
4	
2	
2	
2	
2	
2	
1	
2	
1	
1	
0	
4	
1	
0	
2	
2	
3	
1	
1	
1	
0	
0	
2	
6	
3	
1	
4	
2	
2	
1	
1	
0	
2	
2	
2	
0	
0	
0	
1	
1	
5	
0	
2	
1	
1	
1	
3	
0	
0	
4	
1	
1	
2	
4	
2	
1	
2	
1	
5	
4	
1	
0	
1	
0	
2	
2	
0	
1	
2	
1	
2	
1	
1	
4	
4	
4	
1	
1	
0	
5	
4	
0	
3	
1	
2	
2	
1	
3	
3	
1	
3	
5	
1	
0	
4	
1	
4	
2	
2	
2	
2	
1	
1	
1	
0	
1	
3	
3	
1	
1	
1	
0	
0	
1	
2	
0	
2	
5	
2	
0	
3	
2	
0	
3	
2	
4	
0	
2	
3	
2	
2	
0	
3	
2	
0	
1	
2	
