#PicoHarp 300  Histogram Data			03/27/2023 01:19:08 PM
#channels per curve
15625
#display curve no.
0	
#memory block no.
0	
#ns/channel
0.1280	
#counts
0	
0	
2	
0	
0	
0	
0	
1	
0	
2	
0	
0	
0	
1	
0	
0	
0	
0	
4	
1	
1	
2	
1	
0	
3	
0	
3	
0	
1	
0	
0	
1	
1	
1	
0	
0	
1	
0	
1	
1	
1	
0	
1	
1	
2	
2	
1	
0	
0	
1	
1	
0	
1	
1	
1	
1	
3	
2	
0	
0	
1	
1	
1	
0	
0	
3	
3	
1	
14	
24	
53	
69	
107	
130	
165	
187	
209	
217	
231	
223	
223	
251	
223	
243	
231	
212	
199	
206	
203	
216	
204	
209	
220	
202	
210	
209	
199	
209	
225	
212	
191	
188	
202	
221	
206	
186	
190	
200	
199	
180	
175	
201	
200	
209	
193	
221	
184	
183	
183	
188	
180	
184	
162	
228	
162	
176	
213	
206	
165	
164	
163	
156	
175	
197	
164	
159	
195	
175	
182	
173	
137	
174	
175	
161	
166	
173	
183	
146	
180	
175	
179	
166	
163	
173	
173	
160	
182	
178	
144	
169	
167	
173	
153	
151	
180	
150	
164	
149	
152	
132	
158	
155	
137	
168	
152	
159	
162	
142	
175	
142	
155	
136	
141	
143	
169	
125	
153	
160	
131	
162	
139	
154	
160	
125	
140	
136	
140	
140	
143	
136	
129	
130	
139	
140	
139	
149	
157	
143	
119	
136	
149	
131	
121	
146	
122	
127	
142	
140	
142	
139	
152	
129	
110	
129	
146	
154	
138	
132	
151	
144	
131	
118	
140	
127	
151	
152	
134	
126	
130	
128	
141	
128	
124	
124	
128	
128	
103	
119	
121	
110	
161	
124	
109	
127	
147	
133	
128	
143	
119	
114	
129	
121	
146	
126	
131	
121	
109	
155	
124	
114	
108	
118	
124	
128	
126	
125	
123	
126	
124	
123	
113	
127	
114	
135	
116	
112	
110	
130	
111	
111	
106	
123	
110	
114	
121	
121	
114	
96	
128	
103	
117	
115	
124	
125	
113	
109	
115	
117	
100	
109	
98	
114	
108	
87	
106	
111	
89	
113	
104	
94	
99	
112	
103	
97	
116	
105	
109	
119	
91	
126	
99	
104	
99	
102	
123	
99	
103	
107	
105	
109	
88	
98	
109	
118	
121	
94	
104	
109	
102	
98	
86	
117	
89	
100	
85	
106	
99	
112	
93	
113	
106	
97	
105	
100	
115	
94	
100	
97	
99	
91	
112	
84	
94	
94	
92	
107	
90	
95	
98	
110	
112	
86	
104	
88	
107	
111	
114	
94	
100	
89	
89	
74	
101	
83	
97	
93	
103	
99	
76	
92	
101	
70	
91	
83	
89	
93	
92	
83	
99	
90	
90	
91	
104	
81	
84	
82	
91	
99	
95	
86	
97	
83	
84	
84	
95	
70	
73	
84	
89	
88	
122	
96	
83	
86	
99	
78	
83	
89	
92	
93	
80	
92	
86	
87	
91	
87	
88	
80	
89	
84	
94	
87	
85	
79	
96	
80	
87	
85	
78	
67	
90	
79	
76	
85	
82	
75	
91	
83	
90	
90	
67	
87	
72	
80	
88	
72	
88	
78	
87	
88	
76	
81	
82	
84	
90	
68	
70	
85	
71	
86	
83	
62	
79	
86	
100	
82	
89	
81	
83	
80	
85	
80	
73	
77	
79	
92	
61	
90	
69	
90	
78	
87	
84	
77	
78	
93	
81	
68	
82	
61	
84	
79	
76	
82	
71	
68	
60	
62	
77	
99	
92	
80	
79	
62	
67	
88	
70	
82	
72	
85	
80	
74	
70	
67	
62	
79	
76	
72	
80	
75	
57	
67	
73	
80	
63	
75	
76	
73	
73	
69	
66	
49	
77	
71	
62	
67	
63	
68	
71	
77	
68	
65	
57	
69	
65	
74	
64	
70	
68	
62	
68	
84	
67	
55	
65	
66	
75	
86	
66	
59	
65	
65	
64	
74	
65	
57	
64	
56	
60	
70	
69	
61	
59	
63	
49	
61	
57	
57	
59	
61	
83	
67	
61	
71	
63	
68	
64	
73	
60	
66	
53	
61	
72	
66	
69	
63	
71	
50	
65	
79	
60	
58	
64	
62	
57	
62	
63	
71	
64	
60	
69	
57	
59	
77	
62	
54	
62	
46	
70	
66	
66	
59	
64	
57	
55	
66	
65	
63	
53	
59	
48	
69	
58	
68	
63	
53	
53	
58	
57	
62	
64	
60	
59	
68	
57	
54	
78	
45	
56	
49	
46	
46	
58	
59	
47	
60	
51	
51	
73	
63	
57	
50	
65	
54	
62	
51	
45	
48	
48	
65	
60	
48	
60	
53	
59	
64	
55	
55	
55	
53	
53	
47	
50	
55	
64	
63	
48	
61	
44	
50	
54	
48	
48	
54	
64	
65	
58	
59	
57	
40	
40	
49	
45	
65	
52	
64	
40	
50	
59	
39	
48	
54	
52	
53	
59	
42	
60	
54	
44	
55	
54	
66	
55	
57	
45	
57	
49	
56	
43	
42	
52	
46	
47	
33	
57	
59	
43	
44	
45	
48	
62	
53	
41	
53	
34	
52	
47	
65	
39	
59	
62	
52	
61	
47	
41	
51	
38	
55	
44	
46	
44	
48	
57	
38	
47	
54	
46	
59	
52	
45	
60	
37	
41	
49	
47	
47	
48	
48	
56	
46	
47	
49	
44	
43	
44	
39	
36	
40	
58	
35	
55	
52	
44	
37	
41	
63	
57	
42	
45	
50	
41	
46	
36	
48	
59	
51	
48	
45	
38	
47	
43	
51	
35	
40	
46	
50	
40	
34	
53	
45	
33	
33	
41	
44	
44	
46	
48	
42	
45	
33	
41	
35	
42	
52	
42	
36	
45	
44	
42	
40	
43	
50	
47	
40	
48	
46	
40	
45	
36	
38	
48	
53	
37	
39	
38	
43	
56	
48	
38	
46	
41	
46	
44	
41	
39	
52	
46	
46	
43	
42	
48	
31	
43	
44	
50	
43	
31	
50	
44	
37	
41	
28	
44	
45	
33	
38	
48	
41	
54	
33	
45	
42	
42	
35	
39	
31	
44	
40	
41	
43	
42	
42	
41	
43	
31	
43	
47	
41	
42	
38	
47	
45	
39	
39	
36	
43	
26	
45	
39	
36	
50	
45	
40	
45	
39	
39	
39	
46	
42	
37	
36	
44	
39	
42	
35	
48	
33	
27	
39	
57	
38	
45	
41	
34	
40	
38	
35	
33	
52	
38	
31	
41	
58	
41	
35	
41	
25	
41	
28	
38	
32	
39	
41	
40	
38	
44	
30	
52	
36	
34	
36	
42	
41	
39	
38	
36	
27	
47	
31	
29	
37	
32	
42	
34	
25	
34	
31	
27	
33	
39	
28	
26	
30	
41	
37	
36	
41	
41	
32	
37	
35	
35	
29	
27	
40	
37	
27	
33	
43	
39	
37	
37	
33	
33	
26	
28	
34	
31	
37	
39	
32	
36	
28	
43	
26	
34	
35	
28	
39	
34	
25	
31	
26	
33	
35	
34	
30	
34	
28	
40	
28	
42	
26	
37	
33	
38	
27	
30	
43	
39	
40	
30	
28	
17	
30	
35	
37	
20	
27	
33	
42	
35	
39	
31	
39	
28	
33	
30	
36	
30	
41	
30	
26	
26	
39	
28	
36	
34	
30	
38	
31	
36	
31	
41	
25	
33	
36	
35	
37	
36	
37	
36	
33	
31	
31	
35	
32	
24	
29	
35	
39	
32	
31	
34	
34	
32	
31	
27	
37	
35	
30	
30	
32	
27	
25	
32	
29	
27	
30	
28	
18	
36	
31	
25	
26	
34	
34	
35	
22	
37	
38	
24	
35	
19	
35	
20	
23	
37	
27	
39	
35	
25	
30	
35	
34	
35	
33	
33	
29	
34	
28	
38	
26	
29	
32	
29	
28	
27	
23	
30	
31	
31	
41	
30	
37	
14	
20	
37	
35	
27	
23	
29	
30	
34	
22	
29	
27	
24	
36	
30	
36	
14	
21	
29	
29	
29	
24	
26	
36	
23	
19	
35	
32	
38	
25	
33	
32	
21	
26	
35	
30	
24	
24	
32	
25	
24	
26	
22	
23	
27	
22	
28	
31	
31	
28	
29	
26	
23	
20	
36	
30	
33	
29	
28	
22	
31	
22	
26	
32	
28	
23	
30	
31	
31	
22	
30	
25	
28	
39	
23	
27	
20	
24	
20	
31	
24	
18	
41	
31	
33	
22	
18	
15	
15	
16	
33	
20	
23	
18	
23	
19	
25	
29	
32	
24	
23	
22	
18	
20	
26	
26	
28	
26	
25	
28	
37	
27	
26	
25	
31	
22	
21	
28	
21	
25	
31	
23	
28	
20	
25	
24	
22	
31	
29	
22	
23	
30	
21	
25	
20	
28	
24	
22	
14	
21	
17	
21	
29	
27	
26	
19	
29	
15	
25	
22	
23	
31	
21	
30	
30	
26	
15	
27	
19	
31	
24	
25	
26	
26	
25	
29	
17	
25	
18	
21	
18	
20	
25	
34	
21	
20	
20	
22	
21	
23	
25	
27	
27	
25	
17	
27	
23	
31	
14	
25	
26	
23	
24	
24	
26	
15	
26	
27	
26	
25	
27	
29	
24	
13	
25	
26	
24	
20	
28	
22	
30	
26	
16	
23	
29	
19	
32	
13	
27	
26	
24	
13	
19	
23	
19	
21	
32	
22	
18	
15	
20	
24	
19	
27	
14	
21	
25	
23	
19	
16	
21	
19	
25	
23	
20	
22	
26	
17	
21	
21	
17	
15	
16	
15	
16	
26	
24	
16	
23	
19	
20	
23	
19	
20	
15	
24	
19	
18	
15	
22	
27	
19	
20	
13	
24	
11	
26	
23	
17	
28	
24	
23	
22	
15	
20	
29	
20	
15	
13	
23	
20	
24	
21	
20	
23	
12	
14	
16	
24	
23	
26	
15	
24	
18	
20	
12	
26	
15	
19	
21	
22	
22	
16	
20	
19	
18	
22	
21	
22	
16	
20	
22	
23	
22	
26	
28	
17	
17	
29	
22	
25	
18	
25	
23	
26	
17	
19	
14	
18	
23	
14	
16	
21	
19	
22	
21	
16	
24	
17	
24	
23	
23	
17	
33	
19	
17	
18	
14	
19	
20	
19	
6	
22	
17	
13	
15	
18	
22	
20	
19	
19	
25	
15	
19	
19	
21	
18	
19	
18	
16	
25	
16	
23	
17	
23	
18	
17	
18	
21	
22	
14	
18	
28	
31	
22	
17	
15	
15	
16	
23	
15	
16	
26	
16	
24	
15	
24	
9	
13	
17	
19	
14	
14	
21	
23	
19	
13	
16	
17	
22	
18	
19	
17	
14	
17	
14	
16	
24	
14	
20	
16	
15	
16	
13	
8	
16	
18	
14	
22	
19	
20	
18	
17	
24	
20	
19	
20	
20	
16	
15	
14	
13	
15	
17	
19	
16	
19	
13	
16	
17	
17	
13	
23	
23	
18	
23	
15	
19	
18	
27	
16	
8	
22	
12	
16	
15	
11	
23	
17	
17	
21	
20	
20	
12	
21	
16	
24	
21	
14	
17	
11	
19	
14	
12	
13	
15	
19	
22	
13	
11	
16	
20	
10	
12	
14	
18	
21	
19	
15	
15	
12	
12	
14	
16	
17	
11	
12	
23	
15	
19	
19	
13	
15	
18	
13	
17	
11	
17	
21	
14	
15	
11	
15	
23	
14	
9	
11	
16	
19	
21	
19	
20	
11	
14	
17	
7	
20	
19	
8	
21	
21	
18	
8	
13	
14	
12	
16	
18	
12	
11	
18	
13	
19	
17	
9	
15	
8	
21	
12	
24	
12	
8	
16	
16	
14	
16	
15	
14	
15	
17	
13	
8	
9	
16	
15	
18	
21	
15	
11	
19	
15	
10	
15	
13	
14	
18	
16	
15	
10	
13	
10	
11	
16	
10	
9	
12	
16	
21	
8	
14	
13	
12	
9	
15	
16	
22	
14	
14	
15	
14	
15	
13	
15	
16	
10	
18	
14	
13	
15	
20	
17	
14	
16	
22	
24	
16	
11	
17	
12	
12	
12	
10	
18	
12	
13	
16	
13	
18	
20	
13	
19	
16	
10	
16	
13	
15	
18	
13	
12	
16	
16	
15	
22	
15	
14	
12	
16	
13	
16	
13	
7	
17	
16	
15	
15	
10	
20	
10	
20	
12	
19	
16	
8	
14	
16	
14	
5	
11	
9	
23	
15	
13	
12	
19	
13	
10	
12	
14	
15	
13	
16	
13	
12	
12	
17	
14	
18	
10	
13	
15	
11	
17	
19	
13	
11	
9	
11	
16	
16	
10	
9	
14	
9	
11	
20	
9	
10	
16	
14	
14	
13	
10	
16	
9	
16	
13	
18	
11	
14	
14	
6	
6	
12	
13	
16	
18	
12	
17	
10	
15	
21	
13	
9	
18	
8	
13	
8	
15	
14	
21	
15	
14	
16	
11	
15	
13	
12	
12	
7	
20	
10	
16	
5	
14	
6	
13	
8	
15	
15	
13	
12	
10	
13	
12	
18	
12	
9	
10	
12	
9	
17	
18	
15	
10	
13	
15	
12	
15	
8	
10	
18	
7	
11	
14	
8	
8	
8	
7	
23	
12	
14	
17	
10	
14	
14	
14	
13	
10	
14	
13	
11	
10	
20	
13	
12	
9	
13	
17	
10	
14	
11	
12	
15	
18	
14	
12	
15	
4	
14	
15	
6	
12	
14	
8	
12	
14	
17	
14	
16	
18	
13	
12	
6	
12	
13	
11	
18	
12	
9	
8	
13	
13	
14	
11	
5	
15	
9	
9	
9	
15	
10	
16	
8	
5	
8	
16	
15	
10	
10	
8	
12	
8	
6	
9	
8	
9	
15	
11	
12	
15	
13	
12	
14	
17	
13	
11	
12	
15	
13	
12	
8	
12	
15	
7	
19	
10	
9	
5	
10	
9	
11	
21	
14	
9	
5	
11	
10	
10	
12	
8	
9	
9	
11	
9	
20	
13	
12	
7	
13	
14	
6	
17	
12	
11	
13	
9	
14	
10	
9	
12	
11	
7	
12	
6	
11	
12	
11	
12	
7	
9	
11	
12	
10	
13	
18	
16	
12	
9	
10	
9	
14	
13	
8	
9	
9	
11	
6	
14	
15	
13	
15	
8	
11	
5	
9	
16	
8	
7	
19	
11	
3	
11	
11	
14	
12	
9	
11	
15	
11	
5	
10	
9	
11	
4	
5	
11	
11	
9	
16	
9	
12	
10	
6	
10	
13	
19	
10	
11	
7	
16	
9	
7	
14	
10	
12	
8	
9	
10	
12	
14	
11	
5	
12	
8	
10	
12	
11	
7	
8	
6	
17	
6	
9	
11	
5	
11	
11	
14	
13	
10	
7	
6	
10	
8	
21	
11	
8	
14	
7	
12	
13	
8	
11	
17	
5	
13	
10	
13	
11	
6	
16	
9	
15	
11	
7	
12	
10	
9	
6	
10	
8	
11	
11	
7	
13	
11	
11	
11	
13	
12	
8	
9	
4	
9	
5	
6	
5	
8	
4	
9	
10	
11	
12	
4	
9	
12	
4	
12	
10	
12	
16	
8	
7	
9	
6	
8	
15	
8	
12	
8	
11	
14	
8	
7	
11	
9	
14	
6	
8	
8	
6	
12	
8	
12	
6	
9	
12	
14	
7	
10	
14	
8	
6	
9	
12	
10	
8	
5	
10	
7	
7	
11	
10	
7	
12	
10	
10	
15	
17	
11	
11	
8	
10	
14	
14	
10	
12	
10	
12	
7	
10	
8	
15	
5	
19	
14	
9	
5	
3	
6	
5	
17	
14	
8	
5	
15	
7	
6	
8	
10	
3	
5	
7	
4	
3	
11	
10	
12	
11	
16	
13	
6	
9	
16	
9	
5	
7	
8	
4	
8	
8	
13	
11	
5	
8	
8	
8	
6	
12	
6	
7	
6	
8	
10	
9	
6	
4	
10	
10	
11	
6	
9	
9	
6	
7	
3	
6	
9	
9	
14	
10	
10	
11	
7	
5	
9	
7	
10	
7	
10	
6	
5	
9	
7	
9	
7	
7	
7	
14	
8	
7	
8	
6	
7	
4	
7	
11	
10	
12	
9	
7	
9	
12	
7	
6	
12	
7	
8	
12	
4	
14	
4	
9	
6	
14	
6	
9	
9	
6	
8	
14	
8	
8	
8	
5	
6	
8	
6	
12	
8	
15	
10	
8	
10	
12	
8	
4	
5	
7	
8	
8	
8	
20	
8	
6	
7	
14	
9	
7	
7	
7	
11	
7	
4	
9	
12	
11	
5	
9	
6	
7	
8	
11	
5	
11	
10	
7	
12	
9	
10	
3	
4	
4	
9	
6	
9	
9	
9	
10	
6	
9	
13	
8	
9	
9	
8	
10	
8	
7	
4	
7	
7	
5	
12	
13	
11	
8	
6	
9	
9	
14	
8	
10	
4	
10	
9	
4	
7	
10	
5	
9	
10	
11	
10	
9	
5	
5	
11	
7	
7	
8	
12	
11	
11	
2	
3	
7	
4	
4	
6	
2	
8	
10	
3	
4	
8	
9	
11	
12	
11	
6	
7	
6	
7	
8	
8	
6	
8	
18	
7	
9	
13	
7	
4	
7	
5	
5	
9	
9	
8	
9	
5	
9	
2	
12	
5	
8	
6	
6	
8	
9	
4	
12	
10	
11	
10	
7	
9	
9	
7	
5	
6	
6	
8	
13	
9	
5	
6	
9	
7	
2	
8	
3	
8	
7	
6	
3	
8	
5	
5	
8	
5	
8	
7	
4	
7	
11	
9	
10	
8	
14	
6	
11	
7	
9	
8	
6	
9	
4	
4	
9	
11	
9	
10	
7	
5	
4	
10	
6	
8	
6	
4	
9	
5	
7	
9	
10	
3	
8	
5	
8	
4	
5	
9	
8	
10	
6	
9	
9	
7	
3	
8	
7	
15	
9	
7	
6	
9	
10	
8	
6	
3	
9	
7	
3	
6	
1	
6	
7	
8	
9	
9	
5	
9	
5	
6	
5	
4	
10	
5	
6	
5	
4	
13	
5	
6	
5	
10	
2	
10	
8	
11	
10	
9	
6	
6	
6	
4	
5	
7	
7	
6	
2	
6	
7	
12	
6	
8	
11	
6	
10	
4	
13	
7	
9	
7	
4	
10	
4	
8	
8	
8	
4	
9	
5	
3	
8	
7	
4	
4	
9	
4	
6	
4	
3	
4	
4	
5	
9	
6	
5	
6	
3	
6	
8	
5	
4	
8	
17	
3	
5	
11	
2	
3	
10	
5	
7	
6	
8	
7	
7	
5	
7	
4	
6	
5	
4	
6	
8	
8	
3	
6	
5	
9	
9	
7	
9	
4	
5	
2	
7	
8	
8	
7	
4	
8	
5	
6	
4	
7	
6	
8	
4	
5	
6	
5	
7	
4	
7	
10	
5	
7	
9	
6	
6	
3	
5	
9	
9	
8	
8	
3	
10	
5	
4	
5	
7	
7	
5	
8	
7	
9	
8	
9	
5	
6	
3	
3	
6	
2	
6	
9	
4	
9	
6	
11	
8	
13	
9	
8	
7	
13	
7	
8	
9	
4	
8	
7	
11	
8	
9	
6	
4	
2	
4	
6	
7	
2	
9	
7	
5	
10	
8	
5	
8	
3	
9	
4	
8	
6	
3	
7	
2	
5	
3	
4	
2	
9	
4	
4	
7	
4	
4	
4	
3	
5	
8	
4	
7	
4	
4	
7	
8	
4	
2	
4	
4	
4	
6	
3	
10	
7	
9	
4	
6	
7	
4	
5	
6	
5	
8	
6	
5	
3	
4	
8	
1	
9	
7	
5	
5	
9	
1	
7	
8	
5	
9	
4	
8	
6	
5	
4	
10	
6	
4	
5	
9	
3	
3	
3	
4	
9	
6	
9	
7	
5	
1	
4	
3	
6	
2	
4	
8	
3	
5	
6	
2	
5	
4	
4	
4	
7	
7	
5	
4	
3	
6	
3	
9	
3	
8	
6	
1	
7	
4	
3	
10	
5	
4	
5	
11	
3	
5	
9	
6	
2	
6	
9	
4	
5	
7	
2	
8	
3	
9	
11	
5	
8	
6	
4	
5	
7	
7	
3	
4	
5	
5	
3	
8	
8	
4	
4	
8	
4	
4	
7	
3	
4	
7	
5	
8	
1	
9	
9	
13	
3	
6	
6	
5	
3	
2	
5	
3	
5	
6	
1	
11	
1	
6	
7	
7	
5	
2	
10	
5	
6	
2	
3	
5	
4	
12	
3	
2	
3	
3	
4	
7	
2	
5	
10	
5	
2	
4	
9	
6	
9	
5	
12	
5	
4	
9	
8	
7	
8	
10	
6	
4	
5	
2	
7	
3	
4	
5	
9	
8	
5	
6	
7	
8	
6	
10	
8	
7	
8	
4	
3	
4	
8	
10	
7	
4	
4	
4	
3	
4	
4	
6	
5	
9	
2	
6	
2	
7	
6	
1	
4	
9	
2	
5	
4	
7	
3	
4	
8	
8	
2	
3	
7	
7	
4	
3	
4	
4	
6	
7	
4	
7	
3	
12	
4	
8	
5	
3	
10	
5	
5	
4	
5	
5	
6	
4	
8	
4	
5	
3	
5	
2	
5	
7	
4	
4	
4	
5	
3	
9	
2	
4	
5	
3	
4	
4	
6	
6	
7	
6	
4	
6	
4	
1	
8	
8	
5	
6	
7	
4	
4	
8	
5	
5	
1	
7	
1	
1	
4	
4	
9	
5	
5	
6	
4	
4	
7	
2	
5	
5	
4	
3	
3	
9	
4	
5	
4	
5	
5	
3	
3	
3	
6	
5	
7	
7	
5	
4	
2	
4	
7	
6	
6	
7	
4	
3	
6	
3	
4	
5	
6	
7	
4	
1	
10	
5	
4	
6	
2	
4	
7	
2	
4	
4	
2	
5	
3	
5	
1	
2	
4	
3	
5	
2	
4	
8	
3	
5	
8	
6	
4	
1	
3	
5	
3	
7	
7	
4	
1	
2	
6	
7	
7	
4	
3	
4	
8	
2	
2	
3	
7	
7	
5	
7	
7	
7	
6	
3	
3	
5	
9	
7	
9	
7	
4	
6	
8	
4	
6	
3	
4	
4	
4	
10	
2	
7	
3	
2	
5	
4	
5	
7	
7	
4	
5	
3	
7	
6	
6	
9	
4	
4	
6	
4	
4	
7	
8	
3	
3	
2	
4	
5	
3	
5	
5	
6	
2	
5	
5	
4	
7	
2	
6	
4	
4	
3	
6	
4	
3	
8	
3	
6	
3	
4	
7	
3	
5	
5	
4	
2	
4	
4	
4	
6	
4	
4	
4	
0	
0	
2	
8	
9	
4	
5	
7	
6	
3	
5	
2	
4	
3	
3	
3	
6	
6	
5	
3	
2	
6	
4	
4	
9	
7	
5	
4	
2	
9	
6	
5	
1	
8	
2	
3	
4	
6	
2	
4	
12	
4	
3	
9	
3	
5	
6	
9	
3	
1	
5	
3	
7	
3	
6	
4	
2	
8	
2	
5	
4	
5	
1	
6	
4	
3	
2	
4	
3	
3	
3	
2	
7	
4	
0	
4	
3	
4	
2	
2	
2	
4	
4	
7	
3	
3	
6	
4	
6	
4	
3	
5	
5	
6	
1	
3	
5	
6	
2	
3	
3	
3	
7	
2	
6	
4	
4	
5	
7	
6	
3	
7	
3	
2	
0	
2	
2	
3	
6	
6	
3	
3	
8	
2	
4	
7	
3	
4	
5	
4	
1	
7	
5	
5	
4	
5	
4	
2	
4	
5	
8	
5	
6	
6	
8	
4	
2	
8	
6	
2	
5	
3	
5	
0	
1	
5	
3	
2	
3	
5	
4	
3	
4	
4	
0	
4	
6	
7	
2	
2	
5	
6	
8	
5	
4	
7	
6	
6	
4	
4	
9	
3	
7	
5	
2	
1	
5	
6	
5	
3	
8	
3	
11	
4	
7	
3	
4	
7	
6	
2	
1	
2	
1	
4	
3	
1	
5	
2	
2	
3	
1	
5	
1	
7	
3	
4	
6	
4	
2	
4	
4	
5	
3	
5	
4	
2	
1	
3	
3	
2	
1	
5	
5	
7	
5	
6	
4	
6	
2	
4	
3	
6	
2	
5	
7	
4	
2	
3	
3	
4	
2	
7	
3	
4	
8	
4	
3	
9	
8	
2	
5	
7	
4	
6	
1	
2	
3	
4	
2	
4	
4	
5	
5	
7	
5	
8	
4	
4	
2	
3	
4	
7	
6	
5	
6	
1	
4	
4	
4	
4	
2	
2	
7	
7	
4	
3	
6	
3	
2	
6	
5	
5	
3	
1	
6	
4	
5	
3	
2	
4	
3	
3	
2	
2	
1	
6	
2	
3	
5	
3	
8	
3	
7	
4	
8	
3	
3	
3	
5	
6	
0	
6	
7	
5	
1	
1	
7	
3	
2	
4	
2	
3	
5	
5	
3	
5	
4	
5	
6	
3	
6	
3	
6	
5	
7	
0	
5	
2	
4	
4	
7	
5	
5	
5	
1	
3	
4	
6	
3	
3	
1	
2	
2	
6	
2	
9	
4	
5	
6	
5	
2	
3	
4	
6	
3	
1	
5	
3	
5	
1	
2	
6	
1	
8	
5	
4	
3	
3	
2	
4	
4	
7	
3	
6	
3	
0	
2	
7	
4	
4	
2	
4	
6	
5	
2	
3	
1	
3	
3	
5	
3	
4	
1	
6	
3	
1	
5	
1	
3	
3	
3	
6	
5	
4	
1	
5	
4	
5	
3	
4	
4	
2	
2	
4	
5	
3	
4	
3	
1	
6	
4	
9	
6	
1	
6	
3	
5	
2	
5	
4	
6	
1	
2	
1	
4	
4	
3	
0	
7	
4	
3	
4	
2	
6	
2	
2	
5	
3	
4	
4	
5	
4	
4	
5	
4	
7	
6	
5	
5	
3	
5	
2	
5	
3	
1	
3	
5	
2	
2	
6	
4	
6	
6	
9	
3	
4	
2	
4	
3	
3	
3	
4	
1	
5	
0	
3	
2	
2	
3	
4	
8	
3	
4	
0	
6	
7	
4	
2	
5	
5	
4	
3	
11	
2	
1	
4	
4	
2	
2	
5	
6	
5	
3	
5	
6	
4	
3	
4	
4	
4	
2	
5	
3	
0	
5	
8	
5	
3	
2	
2	
2	
1	
3	
4	
1	
5	
4	
4	
1	
3	
2	
3	
3	
2	
3	
3	
4	
3	
2	
3	
3	
3	
6	
5	
2	
2	
4	
3	
2	
3	
4	
6	
5	
6	
4	
2	
2	
3	
4	
2	
2	
4	
6	
3	
5	
2	
5	
5	
5	
0	
5	
3	
2	
2	
5	
4	
3	
3	
3	
5	
7	
5	
1	
3	
3	
2	
3	
6	
3	
6	
5	
4	
2	
2	
3	
3	
2	
1	
0	
6	
3	
2	
5	
5	
5	
3	
6	
2	
1	
4	
5	
1	
4	
2	
6	
2	
1	
1	
4	
6	
2	
2	
3	
5	
2	
1	
4	
4	
5	
2	
2	
3	
5	
5	
1	
4	
5	
4	
6	
1	
2	
4	
4	
3	
3	
2	
3	
2	
5	
4	
2	
3	
4	
4	
2	
5	
5	
6	
3	
2	
2	
3	
2	
3	
5	
2	
3	
2	
3	
0	
3	
4	
3	
3	
5	
6	
3	
1	
4	
4	
1	
1	
2	
3	
2	
6	
4	
2	
9	
1	
4	
1	
2	
2	
5	
3	
6	
2	
3	
3	
4	
6	
3	
0	
7	
6	
2	
3	
4	
3	
5	
2	
3	
5	
2	
4	
9	
9	
0	
3	
2	
4	
2	
5	
2	
0	
6	
1	
3	
2	
2	
3	
5	
4	
1	
3	
4	
4	
2	
3	
5	
3	
1	
3	
2	
0	
3	
4	
7	
3	
6	
6	
4	
4	
7	
2	
3	
3	
6	
4	
8	
3	
4	
3	
2	
5	
3	
1	
1	
3	
5	
2	
2	
5	
4	
2	
2	
3	
2	
5	
2	
1	
4	
3	
2	
5	
2	
4	
3	
4	
3	
4	
4	
4	
2	
2	
4	
1	
4	
2	
0	
2	
3	
2	
5	
4	
2	
4	
5	
5	
3	
2	
3	
3	
4	
3	
2	
5	
2	
5	
2	
3	
6	
3	
4	
2	
2	
1	
2	
3	
6	
2	
3	
7	
4	
5	
6	
2	
0	
4	
4	
2	
2	
4	
0	
3	
6	
2	
4	
2	
0	
4	
3	
2	
3	
3	
3	
4	
5	
4	
4	
5	
0	
0	
4	
4	
1	
1	
1	
1	
6	
4	
3	
4	
4	
2	
5	
5	
4	
5	
4	
2	
3	
2	
3	
4	
4	
2	
2	
5	
5	
2	
4	
3	
2	
3	
5	
4	
5	
8	
2	
2	
5	
4	
2	
4	
1	
1	
4	
3	
3	
4	
2	
5	
3	
4	
2	
3	
1	
6	
2	
2	
5	
2	
2	
2	
4	
0	
4	
3	
5	
3	
2	
6	
5	
4	
3	
2	
0	
1	
2	
7	
5	
5	
4	
2	
4	
0	
4	
2	
0	
1	
3	
4	
5	
2	
4	
2	
3	
0	
2	
3	
2	
5	
2	
3	
8	
4	
3	
5	
2	
1	
2	
1	
2	
2	
1	
2	
3	
5	
3	
3	
1	
2	
1	
3	
0	
3	
5	
4	
0	
3	
5	
2	
5	
4	
4	
3	
2	
4	
1	
7	
1	
4	
3	
2	
1	
4	
2	
5	
9	
8	
2	
2	
2	
5	
6	
4	
3	
4	
3	
2	
1	
4	
2	
5	
1	
2	
2	
3	
2	
6	
2	
7	
5	
5	
3	
0	
4	
2	
4	
5	
3	
1	
2	
3	
3	
6	
2	
3	
1	
1	
3	
1	
5	
3	
5	
5	
3	
2	
1	
4	
4	
4	
1	
1	
2	
3	
1	
2	
3	
3	
0	
3	
3	
3	
2	
3	
1	
1	
6	
2	
3	
4	
3	
1	
1	
3	
3	
2	
4	
0	
3	
1	
5	
1	
4	
1	
3	
2	
2	
3	
3	
3	
1	
4	
0	
1	
2	
4	
2	
4	
1	
1	
2	
3	
2	
1	
3	
2	
3	
1	
5	
6	
2	
4	
2	
1	
5	
4	
4	
3	
5	
2	
5	
1	
5	
3	
5	
1	
5	
3	
1	
0	
2	
2	
4	
3	
3	
3	
4	
1	
2	
2	
2	
2	
4	
3	
5	
2	
1	
3	
5	
4	
0	
4	
0	
3	
1	
4	
2	
7	
3	
5	
2	
5	
4	
2	
0	
3	
1	
1	
2	
3	
1	
3	
2	
3	
4	
4	
4	
3	
2	
0	
0	
1	
6	
2	
3	
4	
3	
2	
2	
2	
0	
3	
2	
4	
2	
0	
0	
1	
4	
3	
2	
1	
5	
5	
2	
2	
3	
1	
4	
1	
0	
4	
4	
1	
1	
3	
3	
2	
0	
1	
3	
5	
1	
4	
3	
1	
2	
2	
1	
2	
6	
1	
1	
5	
4	
1	
1	
1	
1	
2	
6	
0	
3	
0	
1	
0	
1	
1	
8	
2	
4	
1	
4	
3	
3	
5	
2	
1	
3	
3	
1	
10	
1	
3	
3	
1	
2	
5	
3	
2	
1	
1	
5	
1	
1	
0	
1	
4	
5	
3	
1	
1	
3	
1	
3	
2	
5	
2	
4	
1	
4	
2	
5	
2	
2	
3	
2	
1	
5	
0	
0	
3	
1	
2	
5	
0	
2	
5	
6	
2	
4	
4	
4	
3	
1	
2	
3	
4	
3	
3	
2	
4	
4	
2	
2	
0	
1	
3	
2	
4	
3	
3	
4	
3	
0	
5	
4	
3	
2	
0	
2	
3	
4	
1	
8	
3	
2	
2	
0	
2	
1	
2	
4	
1	
0	
2	
5	
3	
7	
1	
3	
1	
4	
4	
4	
5	
4	
2	
2	
2	
6	
3	
2	
2	
5	
4	
2	
2	
3	
2	
5	
4	
4	
3	
0	
1	
4	
2	
3	
1	
1	
4	
3	
3	
3	
1	
4	
0	
3	
1	
2	
3	
2	
3	
1	
2	
0	
1	
2	
5	
0	
2	
0	
2	
2	
3	
2	
1	
2	
2	
5	
1	
6	
1	
3	
7	
0	
3	
3	
5	
1	
0	
1	
2	
3	
1	
6	
5	
2	
1	
5	
1	
4	
0	
1	
3	
0	
0	
3	
0	
1	
1	
3	
0	
3	
2	
2	
5	
1	
3	
3	
1	
3	
5	
2	
1	
2	
1	
6	
3	
3	
0	
1	
3	
2	
1	
3	
3	
3	
3	
3	
6	
0	
1	
1	
1	
1	
3	
4	
0	
3	
3	
2	
1	
3	
2	
3	
5	
3	
3	
5	
4	
3	
2	
2	
4	
3	
0	
3	
0	
1	
5	
3	
5	
5	
0	
1	
2	
3	
1	
4	
9	
2	
4	
3	
1	
4	
1	
1	
2	
1	
3	
1	
6	
2	
4	
3	
3	
2	
0	
3	
0	
1	
4	
4	
4	
3	
2	
2	
3	
2	
2	
1	
1	
1	
0	
0	
2	
4	
2	
0	
1	
3	
1	
3	
2	
5	
3	
3	
4	
1	
0	
0	
2	
2	
1	
3	
5	
4	
2	
3	
2	
0	
2	
4	
2	
2	
1	
2	
0	
3	
6	
2	
1	
2	
1	
4	
2	
4	
3	
1	
3	
7	
4	
3	
4	
3	
2	
3	
0	
1	
1	
0	
1	
2	
1	
2	
3	
3	
4	
4	
1	
6	
0	
1	
5	
2	
2	
3	
3	
2	
4	
1	
4	
2	
2	
4	
3	
2	
1	
2	
0	
2	
3	
5	
0	
4	
1	
5	
2	
1	
4	
3	
3	
1	
0	
3	
1	
4	
3	
1	
2	
3	
8	
3	
2	
2	
0	
4	
2	
2	
1	
0	
2	
1	
3	
4	
2	
0	
2	
2	
0	
1	
1	
3	
3	
0	
2	
1	
2	
2	
3	
4	
3	
1	
2	
1	
4	
2	
2	
4	
1	
4	
3	
2	
4	
3	
5	
8	
5	
4	
3	
0	
2	
0	
3	
3	
2	
4	
2	
1	
1	
1	
2	
1	
1	
3	
3	
3	
3	
1	
1	
3	
4	
1	
2	
3	
1	
1	
1	
1	
4	
0	
4	
4	
5	
5	
1	
3	
2	
3	
4	
1	
1	
1	
2	
2	
3	
0	
0	
1	
1	
2	
3	
1	
2	
4	
0	
4	
2	
6	
2	
1	
3	
2	
1	
0	
1	
5	
2	
3	
2	
4	
3	
4	
2	
3	
1	
2	
1	
2	
3	
1	
0	
9	
1	
4	
3	
5	
3	
1	
2	
1	
0	
2	
1	
4	
2	
0	
2	
2	
3	
1	
1	
1	
2	
2	
0	
2	
3	
1	
3	
5	
2	
1	
1	
3	
0	
4	
3	
1	
5	
3	
0	
1	
0	
6	
5	
4	
1	
1	
2	
1	
2	
3	
2	
2	
2	
0	
0	
3	
2	
5	
4	
4	
3	
3	
2	
1	
5	
3	
1	
1	
5	
1	
4	
2	
2	
3	
2	
3	
1	
1	
3	
2	
3	
2	
0	
5	
4	
3	
1	
2	
2	
3	
1	
3	
2	
1	
1	
1	
2	
1	
2	
3	
1	
3	
2	
3	
3	
5	
2	
2	
2	
3	
0	
1	
3	
3	
4	
4	
1	
1	
2	
3	
5	
2	
1	
2	
4	
1	
2	
3	
1	
1	
2	
3	
2	
3	
1	
3	
0	
3	
2	
1	
1	
4	
3	
1	
3	
3	
0	
1	
7	
1	
4	
4	
2	
2	
2	
1	
4	
1	
4	
5	
2	
2	
1	
1	
1	
0	
2	
2	
1	
1	
5	
6	
1	
2	
4	
5	
2	
3	
2	
3	
0	
3	
2	
4	
2	
4	
3	
2	
1	
2	
2	
3	
1	
4	
4	
2	
0	
3	
3	
3	
4	
2	
1	
0	
3	
3	
2	
3	
2	
3	
2	
2	
4	
4	
1	
2	
1	
3	
2	
2	
0	
1	
1	
1	
0	
1	
1	
2	
6	
4	
4	
1	
0	
0	
2	
2	
1	
4	
2	
2	
3	
1	
2	
2	
1	
1	
2	
1	
3	
3	
3	
4	
0	
2	
3	
5	
1	
4	
1	
0	
2	
0	
3	
2	
4	
2	
0	
0	
1	
1	
6	
3	
3	
1	
1	
2	
4	
5	
0	
4	
2	
0	
2	
3	
3	
3	
1	
0	
4	
3	
4	
2	
4	
3	
1	
3	
1	
3	
1	
3	
1	
4	
0	
2	
3	
1	
2	
1	
7	
5	
0	
1	
1	
1	
4	
0	
3	
0	
2	
2	
7	
4	
1	
1	
1	
2	
1	
2	
2	
1	
1	
3	
1	
1	
1	
1	
2	
4	
4	
4	
3	
1	
2	
4	
1	
2	
0	
0	
1	
1	
0	
3	
0	
0	
3	
2	
1	
1	
2	
5	
0	
4	
2	
0	
6	
2	
2	
2	
2	
1	
0	
2	
2	
3	
0	
2	
1	
0	
1	
0	
2	
2	
1	
5	
1	
3	
1	
1	
2	
1	
3	
2	
1	
1	
3	
5	
1	
2	
2	
3	
2	
3	
3	
0	
2	
2	
1	
1	
1	
3	
2	
4	
5	
2	
2	
0	
3	
0	
2	
1	
4	
2	
2	
3	
1	
3	
0	
2	
2	
1	
4	
0	
1	
3	
4	
2	
3	
3	
3	
1	
0	
0	
3	
0	
1	
0	
0	
0	
2	
0	
2	
2	
0	
3	
1	
1	
3	
1	
0	
6	
1	
1	
0	
2	
2	
2	
1	
7	
2	
4	
2	
3	
1	
2	
0	
3	
3	
1	
1	
2	
3	
2	
2	
2	
5	
2	
3	
3	
1	
4	
0	
4	
0	
1	
4	
1	
0	
3	
3	
1	
1	
2	
2	
1	
2	
3	
3	
2	
2	
1	
0	
1	
0	
4	
4	
5	
1	
0	
1	
1	
0	
1	
1	
1	
1	
0	
1	
3	
1	
4	
4	
2	
3	
2	
5	
1	
3	
1	
1	
3	
2	
1	
2	
2	
4	
4	
4	
2	
4	
2	
1	
5	
1	
1	
2	
1	
2	
3	
3	
1	
3	
0	
2	
0	
2	
0	
0	
4	
2	
3	
2	
0	
0	
3	
1	
1	
1	
2	
2	
1	
2	
2	
0	
3	
1	
1	
2	
3	
4	
4	
0	
1	
1	
1	
4	
4	
3	
2	
2	
1	
2	
2	
1	
0	
3	
2	
3	
0	
2	
2	
2	
1	
1	
1	
2	
4	
3	
3	
2	
2	
2	
2	
1	
0	
1	
1	
1	
3	
1	
5	
1	
1	
0	
2	
6	
2	
2	
4	
2	
1	
2	
3	
4	
2	
2	
1	
1	
1	
1	
1	
2	
3	
1	
1	
0	
4	
4	
3	
3	
1	
1	
2	
2	
5	
3	
1	
2	
0	
3	
1	
2	
3	
1	
1	
1	
0	
1	
5	
1	
2	
3	
3	
4	
1	
2	
2	
2	
3	
2	
0	
3	
5	
1	
1	
1	
2	
2	
1	
1	
0	
0	
2	
2	
0	
4	
3	
4	
5	
4	
2	
1	
0	
3	
0	
0	
2	
0	
0	
2	
1	
2	
1	
1	
1	
4	
1	
2	
3	
4	
2	
1	
1	
3	
4	
3	
1	
3	
5	
3	
1	
0	
4	
0	
3	
3	
1	
1	
2	
1	
2	
2	
1	
2	
1	
0	
0	
1	
2	
2	
2	
3	
1	
1	
0	
2	
6	
2	
0	
3	
1	
2	
4	
1	
2	
1	
4	
2	
2	
3	
0	
1	
1	
4	
0	
2	
2	
3	
3	
1	
1	
1	
3	
1	
1	
2	
5	
2	
3	
1	
3	
0	
1	
0	
0	
0	
1	
0	
3	
2	
1	
2	
1	
0	
3	
4	
3	
3	
1	
1	
2	
0	
0	
2	
1	
1	
1	
2	
2	
2	
0	
2	
3	
3	
3	
5	
2	
2	
2	
1	
2	
1	
0	
2	
2	
3	
2	
3	
1	
3	
2	
1	
1	
0	
1	
3	
1	
1	
3	
2	
3	
1	
1	
0	
1	
0	
1	
4	
0	
2	
2	
0	
2	
1	
1	
3	
2	
0	
0	
2	
4	
4	
1	
0	
1	
1	
1	
1	
0	
1	
1	
1	
2	
2	
0	
0	
1	
3	
0	
2	
1	
1	
1	
1	
2	
1	
1	
2	
2	
0	
1	
0	
3	
3	
2	
1	
2	
0	
3	
3	
0	
2	
2	
1	
0	
1	
5	
0	
1	
6	
1	
0	
2	
2	
2	
0	
0	
1	
0	
2	
0	
2	
2	
1	
3	
1	
4	
1	
1	
1	
3	
1	
3	
3	
4	
2	
2	
1	
3	
3	
1	
1	
0	
1	
1	
2	
3	
0	
1	
2	
4	
4	
3	
5	
3	
0	
0	
1	
4	
2	
2	
3	
0	
2	
2	
2	
4	
2	
0	
3	
2	
0	
2	
1	
0	
2	
3	
2	
2	
1	
1	
3	
1	
3	
3	
0	
3	
7	
3	
3	
3	
2	
1	
2	
2	
0	
0	
0	
1	
3	
0	
1	
4	
3	
2	
3	
1	
0	
0	
2	
1	
2	
2	
2	
2	
4	
2	
2	
4	
2	
3	
3	
1	
4	
0	
2	
3	
0	
1	
1	
3	
0	
0	
1	
1	
0	
3	
1	
2	
1	
2	
2	
2	
1	
2	
1	
0	
2	
0	
1	
2	
0	
1	
3	
0	
3	
2	
3	
0	
1	
2	
2	
0	
1	
0	
1	
1	
1	
0	
3	
3	
1	
1	
1	
1	
1	
2	
4	
0	
0	
0	
0	
3	
2	
2	
3	
3	
0	
1	
3	
2	
2	
1	
0	
1	
1	
2	
0	
3	
2	
0	
0	
0	
0	
5	
2	
1	
1	
1	
1	
2	
3	
3	
1	
2	
2	
0	
1	
2	
1	
1	
2	
2	
1	
1	
2	
0	
2	
5	
1	
1	
1	
2	
1	
0	
0	
1	
0	
3	
2	
1	
1	
0	
1	
0	
0	
2	
1	
0	
1	
1	
0	
2	
2	
1	
2	
2	
0	
0	
0	
1	
1	
1	
1	
0	
1	
2	
2	
1	
1	
1	
3	
1	
1	
2	
2	
0	
3	
2	
1	
1	
2	
1	
3	
2	
2	
2	
3	
1	
2	
2	
1	
1	
0	
2	
4	
4	
3	
3	
2	
2	
6	
1	
2	
3	
2	
3	
2	
2	
1	
2	
3	
2	
1	
0	
2	
1	
1	
1	
1	
0	
3	
0	
2	
1	
1	
0	
1	
4	
1	
0	
1	
1	
4	
2	
2	
4	
0	
2	
1	
0	
2	
1	
0	
3	
3	
2	
3	
1	
2	
0	
1	
1	
1	
0	
1	
2	
0	
1	
1	
0	
1	
1	
0	
2	
0	
1	
0	
0	
2	
2	
2	
3	
0	
0	
3	
2	
2	
1	
4	
4	
0	
2	
3	
2	
1	
1	
1	
1	
3	
0	
1	
2	
0	
0	
3	
2	
1	
1	
4	
1	
2	
0	
2	
2	
3	
3	
1	
5	
2	
1	
3	
4	
2	
2	
0	
1	
1	
3	
2	
2	
1	
0	
4	
2	
0	
2	
1	
1	
3	
3	
2	
1	
1	
3	
2	
1	
2	
1	
0	
3	
0	
0	
3	
1	
2	
0	
2	
0	
0	
2	
2	
2	
1	
2	
1	
3	
3	
4	
1	
2	
0	
3	
1	
2	
3	
0	
0	
3	
4	
0	
3	
2	
0	
0	
3	
0	
0	
1	
5	
1	
2	
3	
2	
0	
2	
0	
0	
4	
2	
4	
1	
3	
1	
1	
2	
2	
1	
3	
2	
1	
1	
2	
2	
2	
1	
0	
1	
1	
4	
2	
1	
1	
0	
1	
1	
1	
2	
3	
0	
0	
4	
2	
4	
1	
4	
0	
0	
3	
0	
0	
3	
2	
3	
2	
1	
5	
1	
1	
3	
2	
1	
2	
1	
1	
1	
1	
1	
1	
0	
1	
2	
2	
5	
2	
0	
4	
1	
2	
2	
3	
4	
4	
2	
0	
1	
3	
0	
2	
3	
3	
1	
1	
1	
1	
1	
1	
0	
2	
0	
3	
1	
2	
2	
0	
2	
1	
3	
3	
2	
3	
0	
3	
0	
3	
1	
1	
1	
1	
1	
1	
1	
0	
2	
0	
0	
2	
0	
0	
3	
2	
0	
1	
1	
1	
2	
0	
2	
0	
1	
0	
0	
4	
1	
1	
4	
2	
0	
1	
0	
0	
5	
0	
1	
1	
1	
2	
3	
3	
1	
2	
1	
1	
1	
1	
1	
1	
2	
1	
2	
2	
1	
1	
1	
7	
2	
3	
1	
3	
2	
2	
2	
1	
2	
1	
2	
3	
0	
1	
2	
0	
1	
1	
0	
0	
3	
1	
1	
1	
2	
1	
2	
2	
1	
0	
2	
1	
1	
0	
1	
0	
2	
0	
0	
2	
2	
1	
2	
0	
1	
2	
2	
0	
3	
4	
3	
2	
0	
3	
1	
4	
1	
2	
0	
1	
1	
3	
1	
3	
2	
0	
0	
1	
4	
4	
1	
4	
4	
4	
2	
0	
2	
1	
1	
3	
0	
1	
1	
1	
2	
4	
3	
2	
2	
2	
2	
2	
1	
0	
1	
3	
1	
1	
2	
1	
1	
0	
0	
3	
0	
5	
0	
4	
2	
0	
4	
1	
1	
1	
1	
1	
1	
2	
3	
1	
1	
1	
0	
1	
1	
1	
0	
5	
1	
3	
1	
3	
2	
0	
2	
3	
2	
1	
2	
2	
1	
1	
4	
3	
0	
1	
1	
0	
2	
2	
3	
0	
2	
1	
3	
1	
0	
2	
2	
2	
0	
0	
0	
0	
1	
2	
1	
0	
2	
0	
1	
2	
1	
3	
1	
1	
2	
0	
2	
1	
2	
1	
1	
1	
2	
0	
6	
2	
1	
4	
0	
1	
0	
2	
1	
3	
1	
2	
2	
1	
2	
2	
1	
3	
2	
1	
2	
1	
3	
3	
3	
2	
1	
1	
2	
2	
1	
0	
0	
2	
3	
3	
2	
2	
0	
0	
2	
3	
2	
4	
1	
2	
2	
0	
2	
2	
1	
0	
4	
1	
1	
1	
1	
0	
1	
1	
2	
2	
0	
4	
1	
1	
1	
3	
0	
2	
1	
1	
2	
1	
1	
0	
3	
0	
2	
1	
1	
1	
1	
1	
1	
2	
0	
3	
2	
1	
2	
3	
3	
0	
1	
1	
1	
2	
1	
0	
1	
4	
1	
0	
2	
1	
0	
4	
1	
1	
4	
2	
3	
1	
2	
1	
0	
0	
2	
2	
1	
2	
3	
0	
1	
1	
0	
4	
3	
2	
1	
0	
2	
0	
0	
2	
2	
2	
1	
2	
1	
3	
3	
1	
2	
4	
1	
1	
2	
1	
0	
1	
0	
0	
1	
1	
3	
4	
1	
1	
1	
2	
2	
4	
1	
1	
1	
1	
1	
1	
0	
3	
1	
3	
1	
0	
3	
2	
2	
1	
2	
2	
4	
4	
3	
0	
3	
5	
3	
3	
0	
0	
1	
2	
2	
0	
1	
2	
1	
1	
1	
1	
0	
1	
2	
1	
3	
1	
1	
3	
1	
2	
0	
1	
2	
2	
3	
2	
4	
3	
2	
3	
2	
0	
0	
2	
0	
2	
1	
0	
1	
3	
0	
2	
2	
1	
2	
4	
1	
2	
0	
1	
1	
0	
0	
2	
0	
1	
2	
0	
2	
3	
1	
5	
0	
4	
1	
0	
1	
3	
0	
3	
2	
0	
5	
1	
0	
0	
1	
1	
2	
2	
2	
1	
2	
1	
1	
4	
2	
2	
3	
1	
0	
1	
0	
0	
1	
2	
1	
1	
1	
1	
1	
2	
0	
0	
3	
0	
0	
0	
1	
3	
1	
0	
1	
0	
2	
1	
0	
0	
1	
3	
0	
0	
0	
1	
2	
2	
0	
1	
1	
2	
1	
1	
1	
1	
2	
1	
1	
4	
3	
2	
2	
1	
0	
3	
3	
3	
1	
3	
2	
1	
0	
2	
0	
1	
1	
1	
2	
1	
4	
2	
0	
2	
0	
1	
2	
3	
4	
0	
1	
3	
2	
2	
2	
2	
1	
2	
2	
1	
1	
1	
2	
1	
2	
4	
2	
2	
0	
2	
3	
1	
0	
1	
0	
3	
1	
0	
0	
0	
0	
2	
2	
1	
0	
2	
2	
4	
2	
1	
1	
1	
3	
0	
2	
2	
1	
2	
1	
1	
3	
1	
3	
0	
1	
1	
2	
2	
0	
2	
2	
1	
1	
0	
0	
1	
1	
1	
1	
2	
2	
3	
1	
3	
0	
0	
3	
1	
1	
2	
2	
2	
0	
4	
0	
0	
3	
1	
2	
2	
2	
0	
1	
1	
1	
1	
0	
4	
1	
0	
0	
2	
2	
1	
1	
1	
0	
1	
0	
1	
0	
1	
0	
0	
2	
2	
3	
1	
2	
0	
2	
3	
2	
2	
1	
1	
1	
2	
2	
1	
1	
1	
1	
0	
0	
2	
3	
2	
1	
2	
2	
1	
1	
1	
2	
1	
1	
2	
1	
3	
1	
0	
0	
2	
2	
1	
1	
3	
1	
1	
3	
1	
2	
3	
4	
2	
0	
2	
1	
4	
1	
1	
1	
0	
0	
3	
2	
2	
2	
3	
2	
2	
3	
0	
1	
0	
1	
3	
1	
2	
1	
2	
2	
0	
1	
2	
1	
0	
1	
0	
1	
1	
1	
4	
1	
1	
0	
4	
3	
0	
0	
2	
0	
3	
3	
0	
1	
0	
0	
0	
1	
4	
1	
0	
0	
2	
0	
0	
0	
3	
1	
0	
1	
3	
0	
0	
2	
1	
3	
1	
1	
2	
0	
2	
1	
2	
1	
2	
2	
2	
1	
0	
0	
5	
3	
0	
1	
2	
0	
1	
2	
2	
2	
1	
0	
0	
0	
0	
2	
0	
2	
1	
0	
3	
1	
1	
1	
1	
4	
0	
3	
0	
2	
1	
0	
1	
0	
1	
2	
2	
0	
5	
0	
1	
2	
0	
1	
2	
0	
0	
1	
0	
0	
2	
1	
2	
7	
0	
0	
1	
0	
1	
1	
3	
0	
1	
2	
2	
0	
3	
0	
1	
1	
3	
1	
3	
2	
2	
1	
1	
2	
1	
0	
1	
4	
1	
1	
2	
3	
0	
2	
1	
1	
0	
0	
0	
2	
1	
1	
2	
2	
1	
2	
1	
2	
0	
2	
2	
2	
1	
0	
0	
1	
1	
1	
0	
0	
1	
1	
2	
3	
4	
0	
2	
1	
2	
2	
0	
1	
2	
0	
2	
1	
3	
1	
2	
0	
1	
0	
0	
0	
0	
2	
1	
2	
2	
1	
1	
0	
2	
1	
1	
1	
1	
1	
3	
3	
2	
0	
1	
2	
0	
0	
0	
1	
2	
4	
0	
3	
1	
2	
0	
2	
1	
0	
4	
1	
1	
1	
3	
2	
1	
0	
2	
1	
2	
3	
1	
1	
1	
1	
1	
0	
3	
2	
2	
0	
2	
0	
0	
2	
1	
2	
1	
1	
1	
1	
0	
1	
2	
2	
0	
4	
3	
4	
2	
0	
3	
0	
2	
2	
2	
1	
2	
1	
1	
2	
2	
1	
2	
0	
3	
1	
1	
2	
1	
1	
1	
3	
0	
3	
3	
0	
2	
2	
1	
3	
2	
1	
0	
2	
0	
1	
1	
3	
2	
1	
2	
0	
0	
2	
0	
1	
1	
1	
2	
0	
2	
1	
1	
0	
0	
0	
1	
0	
2	
1	
2	
1	
3	
0	
1	
1	
2	
3	
2	
0	
1	
0	
1	
2	
0	
1	
2	
1	
1	
1	
4	
1	
1	
2	
0	
3	
1	
0	
1	
0	
1	
1	
1	
2	
2	
0	
2	
0	
1	
0	
0	
3	
1	
2	
2	
2	
2	
3	
3	
0	
2	
2	
1	
1	
1	
4	
2	
1	
0	
3	
2	
0	
2	
2	
1	
1	
0	
2	
0	
2	
1	
2	
0	
0	
1	
2	
0	
2	
1	
1	
1	
2	
0	
2	
3	
0	
0	
1	
2	
4	
0	
1	
1	
0	
2	
2	
0	
1	
0	
1	
0	
1	
2	
1	
3	
1	
2	
1	
0	
0	
3	
1	
0	
1	
1	
1	
0	
1	
1	
0	
1	
0	
1	
0	
2	
1	
1	
1	
2	
4	
0	
0	
2	
2	
3	
2	
2	
2	
1	
1	
2	
0	
0	
0	
2	
0	
2	
1	
0	
1	
0	
0	
0	
0	
1	
0	
3	
0	
2	
2	
2	
1	
1	
0	
2	
2	
1	
1	
3	
1	
3	
0	
1	
2	
2	
1	
1	
2	
1	
0	
1	
2	
0	
2	
1	
0	
1	
1	
0	
3	
1	
1	
2	
1	
1	
0	
2	
1	
3	
1	
1	
4	
1	
3	
1	
0	
1	
2	
1	
1	
2	
1	
1	
2	
1	
0	
3	
3	
1	
2	
1	
2	
1	
2	
1	
0	
1	
1	
1	
0	
1	
2	
4	
1	
2	
0	
0	
0	
0	
1	
0	
2	
0	
2	
0	
1	
1	
2	
0	
1	
2	
0	
3	
2	
3	
0	
1	
2	
1	
0	
0	
0	
1	
0	
0	
1	
2	
0	
0	
0	
1	
0	
2	
0	
0	
5	
3	
2	
2	
1	
2	
1	
1	
1	
2	
1	
0	
0	
1	
3	
0	
0	
1	
3	
1	
2	
2	
1	
0	
2	
2	
3	
2	
0	
2	
0	
2	
2	
4	
1	
0	
4	
2	
3	
0	
2	
1	
0	
1	
1	
1	
3	
1	
2	
0	
1	
4	
2	
0	
1	
0	
1	
1	
1	
2	
2	
0	
0	
2	
0	
1	
2	
1	
1	
2	
2	
2	
1	
1	
1	
3	
2	
2	
3	
2	
2	
0	
2	
3	
2	
0	
1	
1	
1	
1	
2	
0	
1	
4	
3	
4	
1	
0	
1	
0	
0	
0	
1	
2	
1	
0	
0	
1	
2	
0	
4	
2	
3	
0	
1	
1	
1	
3	
1	
5	
0	
2	
1	
0	
1	
2	
1	
2	
2	
2	
0	
1	
3	
2	
0	
0	
2	
3	
1	
1	
1	
1	
0	
1	
0	
0	
2	
3	
1	
2	
0	
1	
0	
0	
1	
3	
1	
1	
1	
3	
2	
1	
1	
1	
2	
3	
0	
3	
1	
1	
1	
4	
0	
2	
0	
0	
0	
4	
1	
0	
0	
2	
1	
2	
2	
1	
0	
2	
0	
1	
1	
1	
1	
3	
1	
1	
1	
2	
1	
0	
3	
1	
1	
3	
1	
0	
1	
0	
0	
3	
0	
1	
0	
0	
2	
0	
1	
3	
0	
1	
2	
0	
1	
0	
2	
2	
0	
1	
1	
0	
2	
2	
1	
2	
1	
0	
3	
2	
0	
1	
0	
1	
0	
0	
0	
1	
2	
1	
0	
3	
0	
1	
1	
1	
3	
2	
2	
2	
2	
3	
1	
2	
0	
1	
1	
0	
2	
1	
0	
2	
2	
0	
1	
0	
0	
1	
1	
4	
3	
1	
0	
0	
2	
0	
0	
2	
3	
1	
1	
1	
1	
0	
3	
0	
1	
1	
0	
0	
0	
0	
3	
2	
3	
2	
0	
1	
1	
2	
3	
1	
1	
0	
0	
0	
1	
0	
0	
1	
0	
1	
0	
0	
0	
1	
1	
3	
0	
2	
2	
2	
1	
2	
2	
1	
2	
0	
1	
1	
0	
0	
1	
1	
2	
2	
3	
4	
1	
1	
1	
0	
1	
0	
1	
0	
2	
0	
1	
4	
1	
1	
1	
0	
0	
1	
2	
1	
2	
0	
3	
1	
0	
1	
0	
1	
0	
0	
1	
2	
0	
0	
1	
1	
2	
2	
3	
0	
1	
0	
0	
1	
1	
2	
0	
0	
1	
1	
1	
0	
2	
2	
2	
1	
2	
2	
1	
0	
1	
2	
1	
2	
1	
2	
1	
0	
0	
2	
1	
1	
0	
0	
4	
1	
1	
2	
1	
1	
0	
1	
1	
0	
1	
0	
1	
1	
1	
1	
0	
0	
0	
3	
3	
0	
3	
1	
0	
1	
0	
2	
0	
2	
2	
1	
2	
4	
1	
2	
2	
2	
2	
3	
1	
1	
1	
1	
3	
0	
1	
1	
2	
2	
0	
1	
1	
1	
3	
2	
0	
2	
0	
0	
1	
1	
0	
0	
1	
1	
1	
4	
1	
1	
1	
1	
0	
5	
1	
1	
1	
1	
1	
0	
2	
3	
1	
2	
1	
1	
0	
0	
1	
2	
1	
2	
1	
1	
2	
0	
1	
1	
0	
1	
3	
2	
1	
3	
1	
1	
1	
2	
2	
1	
2	
1	
0	
2	
3	
1	
0	
1	
2	
2	
1	
1	
2	
2	
0	
1	
1	
0	
0	
1	
1	
2	
2	
1	
0	
1	
1	
0	
2	
1	
0	
1	
3	
1	
0	
0	
1	
2	
2	
2	
0	
2	
0	
1	
1	
0	
2	
1	
1	
1	
1	
1	
0	
0	
1	
1	
0	
1	
0	
3	
2	
1	
0	
1	
1	
0	
1	
2	
1	
1	
1	
1	
2	
3	
0	
3	
1	
1	
0	
2	
0	
0	
1	
0	
2	
0	
1	
0	
0	
0	
2	
2	
3	
4	
0	
1	
2	
4	
1	
0	
1	
1	
1	
1	
1	
1	
2	
0	
1	
1	
0	
0	
0	
0	
4	
1	
1	
4	
2	
1	
1	
0	
0	
1	
1	
3	
2	
4	
2	
0	
0	
1	
1	
0	
1	
1	
1	
0	
1	
2	
1	
1	
1	
2	
0	
1	
1	
4	
4	
0	
1	
1	
1	
3	
1	
2	
1	
1	
0	
0	
3	
0	
0	
3	
2	
0	
0	
2	
2	
1	
2	
1	
1	
1	
1	
0	
1	
2	
0	
0	
0	
1	
0	
0	
2	
0	
1	
3	
0	
1	
1	
2	
2	
4	
0	
2	
1	
1	
3	
2	
0	
0	
1	
0	
3	
0	
0	
0	
1	
1	
1	
0	
0	
2	
2	
3	
5	
1	
0	
3	
0	
1	
4	
1	
1	
2	
1	
1	
2	
6	
1	
0	
2	
1	
0	
1	
3	
1	
0	
0	
1	
0	
2	
0	
1	
3	
0	
2	
0	
1	
1	
1	
2	
0	
1	
1	
0	
0	
3	
2	
3	
2	
1	
1	
1	
2	
1	
3	
0	
0	
3	
1	
2	
1	
0	
1	
3	
1	
1	
1	
1	
2	
2	
3	
0	
2	
1	
1	
3	
1	
5	
1	
1	
3	
1	
0	
1	
2	
0	
0	
3	
1	
0	
0	
2	
0	
1	
0	
1	
0	
0	
2	
1	
0	
0	
1	
1	
0	
1	
1	
2	
1	
0	
0	
0	
2	
0	
0	
0	
2	
2	
2	
2	
0	
0	
1	
0	
0	
0	
1	
2	
2	
0	
2	
0	
0	
0	
2	
2	
0	
0	
2	
0	
1	
2	
2	
1	
0	
2	
1	
0	
1	
1	
3	
2	
1	
1	
2	
1	
2	
1	
0	
1	
1	
