#PicoHarp 300  Histogram Data			03/28/2023 01:22:05 PM
#channels per curve
15625
#display curve no.
0	1	2	
#memory block no.
0	1	2	
#ns/channel
0.1280	0.1280	0.1280	
#counts
0	0	2	
1	3	1	
0	0	3	
0	1	10	
1	3	2	
0	2	3	
0	2	7	
0	1	2	
0	1	4	
2	0	4	
1	0	2	
0	1	2	
0	0	0	
0	0	2	
0	1	2	
1	1	3	
1	2	3	
1	1	4	
1	2	2	
0	0	0	
0	3	5	
1	0	1	
0	1	0	
0	0	2	
2	0	0	
2	1	3	
0	0	2	
0	0	1	
0	0	2	
0	0	5	
0	0	4	
0	1	3	
0	1	0	
1	1	3	
0	1	3	
0	0	2	
1	0	2	
0	0	2	
0	0	2	
2	0	0	
2	2	4	
1	0	0	
0	1	3	
1	0	2	
0	1	2	
0	2	4	
0	2	3	
1	0	0	
1	2	2	
1	0	0	
0	0	2	
1	1	1	
1	0	2	
2	0	7	
0	0	4	
0	2	3	
1	0	2	
1	1	3	
0	0	4	
0	1	1	
0	1	1	
1	0	0	
0	0	3	
0	1	3	
0	2	4	
0	1	4	
0	1	1	
2	2	4	
3	3	6	
6	9	8	
11	14	15	
24	24	18	
30	25	29	
43	45	48	
64	45	59	
57	63	56	
90	83	61	
80	96	59	
93	73	67	
97	71	44	
83	83	54	
90	76	67	
90	86	75	
76	74	57	
78	79	67	
95	93	65	
96	100	66	
84	75	47	
99	77	75	
84	71	47	
83	90	42	
98	65	55	
80	79	54	
89	77	59	
89	64	57	
100	64	49	
99	77	47	
78	84	48	
97	76	46	
75	84	60	
86	69	43	
84	64	51	
73	89	49	
84	65	42	
72	69	47	
60	55	44	
70	63	38	
92	66	43	
72	77	37	
69	64	42	
66	66	53	
70	63	39	
69	54	41	
60	75	56	
78	61	39	
72	50	50	
80	57	46	
70	73	40	
77	59	39	
64	59	37	
96	79	50	
71	71	52	
64	62	47	
62	68	44	
67	60	31	
54	54	35	
82	61	59	
76	62	49	
61	65	33	
70	55	42	
70	59	47	
78	63	36	
73	56	35	
62	63	35	
76	62	36	
66	49	49	
61	59	58	
62	51	53	
76	53	46	
62	58	37	
70	49	45	
58	68	50	
80	43	33	
69	60	42	
65	58	57	
57	55	43	
55	46	44	
65	57	42	
64	55	37	
67	64	51	
55	68	55	
58	61	43	
63	40	43	
67	62	47	
68	55	39	
62	47	43	
58	61	33	
63	65	44	
70	46	41	
59	61	45	
59	55	45	
60	67	36	
71	31	39	
62	56	39	
59	56	41	
66	57	39	
64	50	38	
62	42	41	
67	53	46	
65	57	50	
58	49	40	
59	60	40	
51	41	45	
67	55	37	
57	55	42	
67	28	38	
72	45	28	
51	46	39	
58	51	43	
53	62	32	
69	45	42	
55	50	37	
53	55	28	
58	47	30	
70	58	32	
46	46	29	
68	48	43	
52	59	39	
49	42	29	
55	57	29	
56	45	36	
49	48	34	
55	56	33	
50	50	46	
58	44	32	
65	50	39	
46	56	37	
42	51	44	
55	59	46	
58	51	30	
64	44	24	
61	45	39	
47	54	41	
53	39	45	
67	35	41	
58	44	53	
53	43	36	
69	50	39	
65	46	30	
58	37	30	
61	40	40	
52	45	34	
45	36	28	
44	52	39	
59	44	42	
58	52	43	
58	40	38	
66	33	34	
51	40	36	
66	35	30	
41	46	35	
51	57	35	
60	32	28	
51	44	28	
51	45	44	
59	50	39	
52	41	37	
46	47	34	
53	34	27	
50	46	30	
49	44	29	
61	36	30	
55	37	35	
41	37	30	
50	36	21	
49	32	43	
50	39	34	
48	53	36	
56	44	34	
44	49	38	
54	50	37	
41	46	36	
50	31	35	
49	38	27	
50	45	36	
61	39	39	
47	33	23	
62	41	35	
57	49	31	
57	46	39	
49	34	22	
46	51	33	
47	37	49	
36	51	33	
45	50	22	
46	43	39	
52	36	40	
55	42	36	
41	44	27	
49	45	37	
46	37	26	
52	39	33	
47	34	33	
53	43	41	
44	47	33	
36	50	33	
40	41	33	
49	52	34	
38	38	25	
46	36	33	
47	34	34	
46	34	38	
50	30	31	
46	56	39	
48	36	29	
43	42	30	
47	47	27	
48	45	33	
50	34	38	
60	28	28	
51	41	40	
49	39	26	
55	33	31	
50	36	37	
47	25	24	
47	34	31	
46	39	36	
44	36	31	
47	47	35	
43	38	33	
48	32	37	
42	41	35	
51	45	33	
44	44	40	
44	43	37	
44	41	47	
47	39	20	
46	36	34	
55	35	31	
39	37	20	
50	33	41	
40	41	17	
44	39	37	
51	33	30	
43	37	41	
41	41	32	
45	30	35	
47	28	24	
36	38	27	
42	45	33	
43	33	26	
48	38	21	
42	30	28	
43	38	44	
44	33	31	
43	32	33	
44	39	34	
44	44	23	
44	33	27	
29	37	22	
43	45	26	
47	30	30	
42	40	23	
54	19	30	
46	35	34	
44	33	32	
28	33	31	
33	26	22	
40	36	21	
43	26	28	
46	33	22	
45	35	19	
36	32	25	
33	32	31	
46	33	35	
39	37	38	
44	44	22	
41	32	28	
30	31	28	
43	39	24	
25	31	24	
38	32	29	
46	38	31	
40	25	32	
41	30	29	
45	39	26	
40	38	28	
52	36	21	
31	30	29	
46	38	25	
33	31	34	
36	32	32	
32	15	26	
43	34	29	
44	36	25	
46	35	17	
38	36	40	
40	28	25	
40	39	28	
41	33	30	
39	32	30	
34	21	30	
40	29	32	
35	30	27	
28	28	19	
38	40	28	
41	35	24	
31	26	29	
27	28	24	
34	50	25	
37	41	30	
42	47	30	
48	32	28	
34	33	28	
36	35	32	
39	39	30	
33	29	29	
41	27	19	
30	25	34	
37	32	32	
44	34	37	
33	34	24	
37	32	19	
28	35	30	
27	27	31	
26	27	30	
38	29	22	
38	33	20	
33	33	42	
37	22	26	
33	32	25	
39	32	27	
28	29	16	
32	28	19	
25	31	30	
43	35	24	
44	37	20	
31	26	32	
37	39	34	
46	40	27	
33	33	31	
30	25	22	
37	34	31	
38	25	27	
36	29	30	
34	35	15	
23	28	27	
41	29	25	
38	27	26	
31	30	25	
38	33	27	
36	39	28	
33	25	29	
36	33	23	
35	25	23	
41	26	32	
35	32	27	
37	36	32	
37	25	25	
45	35	28	
26	26	30	
36	24	24	
42	29	28	
38	24	33	
32	27	22	
37	28	25	
32	25	20	
27	32	25	
38	29	29	
23	37	23	
34	27	23	
36	26	39	
40	28	21	
37	19	30	
37	29	26	
39	28	27	
25	38	22	
32	26	23	
34	26	32	
27	31	20	
42	28	24	
35	25	24	
34	36	20	
43	38	31	
36	25	26	
26	32	22	
22	33	19	
43	26	26	
31	38	23	
44	26	25	
35	28	33	
31	29	16	
27	38	17	
25	32	21	
29	26	26	
27	25	25	
38	24	20	
31	36	17	
43	33	28	
37	32	21	
23	34	25	
26	35	26	
34	33	24	
40	22	21	
26	33	23	
35	38	35	
32	28	24	
27	28	23	
30	23	24	
21	26	29	
28	33	22	
32	22	22	
32	20	16	
30	31	19	
25	35	23	
40	33	20	
42	26	23	
28	27	26	
34	23	25	
35	25	22	
30	26	36	
42	31	25	
20	28	30	
41	28	28	
37	27	23	
36	24	26	
24	24	20	
34	30	23	
32	30	22	
28	22	23	
41	30	23	
38	27	26	
29	27	29	
25	25	27	
18	21	17	
30	23	26	
28	33	25	
30	17	22	
22	26	26	
29	36	12	
24	20	20	
28	24	31	
24	26	25	
30	38	25	
35	32	27	
26	27	23	
36	29	21	
24	33	25	
27	27	28	
30	21	20	
33	31	22	
27	22	28	
17	18	30	
33	22	18	
33	23	24	
30	29	24	
30	24	20	
34	31	18	
28	30	23	
25	38	28	
26	22	33	
32	28	26	
27	35	26	
35	22	13	
25	28	17	
30	23	21	
23	26	22	
31	18	24	
22	26	20	
34	25	23	
33	23	24	
33	27	14	
30	18	31	
33	29	26	
28	30	19	
30	27	26	
28	27	30	
26	24	17	
24	27	22	
25	27	21	
31	26	24	
25	21	24	
37	32	27	
28	30	22	
27	22	21	
23	27	20	
28	33	25	
31	16	17	
16	28	23	
32	17	20	
25	29	31	
33	24	25	
21	31	30	
29	27	27	
26	38	26	
32	17	19	
28	24	21	
29	32	22	
21	28	27	
22	26	19	
37	24	22	
27	22	24	
33	26	23	
27	29	26	
36	32	15	
26	20	31	
24	25	14	
33	26	23	
44	17	17	
25	20	25	
27	21	22	
25	24	24	
18	25	13	
22	19	26	
25	22	16	
22	25	31	
33	24	23	
30	25	31	
30	21	20	
30	16	24	
26	14	20	
19	18	24	
20	17	23	
30	33	19	
24	27	25	
19	24	7	
29	24	23	
22	27	18	
34	19	20	
28	21	20	
32	23	20	
18	26	29	
28	18	24	
21	20	20	
25	27	24	
27	30	26	
19	25	19	
24	20	22	
28	22	17	
18	26	22	
29	15	28	
40	25	16	
20	20	31	
29	20	24	
31	29	14	
26	28	20	
37	23	22	
23	28	24	
24	20	16	
18	26	20	
22	27	18	
34	28	27	
20	17	11	
22	23	28	
33	22	24	
27	25	13	
27	17	22	
24	22	22	
29	19	17	
20	13	23	
34	10	13	
29	23	18	
27	22	24	
33	29	17	
45	35	20	
33	16	24	
28	22	24	
30	20	15	
23	28	23	
20	23	22	
23	21	22	
28	24	13	
34	28	33	
21	26	20	
26	27	17	
30	26	20	
32	30	19	
19	24	34	
23	22	18	
18	23	21	
28	11	18	
32	20	27	
26	19	20	
28	23	20	
30	20	19	
34	29	22	
25	22	25	
31	29	16	
23	22	28	
22	36	17	
19	18	25	
38	23	19	
29	17	24	
24	20	24	
27	16	23	
27	18	18	
35	20	16	
26	20	13	
30	20	19	
17	20	17	
32	19	22	
28	9	17	
27	14	20	
21	24	25	
20	18	19	
22	12	21	
27	28	22	
25	16	19	
35	18	16	
27	14	23	
24	22	12	
22	16	21	
23	24	24	
31	15	13	
18	16	16	
35	21	23	
22	28	19	
28	19	23	
29	19	20	
34	21	15	
25	21	19	
21	27	19	
18	21	25	
21	27	24	
18	9	18	
24	17	16	
28	21	18	
21	18	21	
22	29	16	
30	19	23	
19	15	21	
26	19	23	
18	19	21	
28	22	13	
22	28	22	
24	22	15	
20	28	23	
26	19	25	
12	26	18	
23	23	19	
18	21	30	
34	20	22	
28	17	11	
30	13	18	
18	13	18	
23	19	20	
23	12	23	
26	11	16	
21	12	18	
30	34	21	
32	16	16	
19	19	15	
20	21	17	
19	22	25	
19	15	23	
37	27	24	
17	29	20	
19	23	27	
22	27	27	
21	24	10	
35	30	19	
16	15	12	
17	32	23	
20	21	22	
26	13	15	
24	16	17	
24	19	25	
24	19	18	
19	24	17	
13	23	24	
13	13	17	
25	15	30	
28	22	17	
20	17	14	
26	20	16	
27	19	17	
22	18	24	
26	16	23	
24	24	31	
25	19	19	
19	30	21	
23	20	18	
19	27	16	
27	23	15	
20	15	15	
13	26	20	
22	21	19	
15	18	16	
18	20	13	
35	23	14	
27	18	15	
21	18	10	
22	24	19	
25	31	19	
16	26	18	
21	20	25	
19	11	19	
35	17	16	
18	11	24	
19	17	13	
21	20	14	
20	15	21	
33	15	16	
23	14	20	
20	16	24	
19	10	25	
25	18	24	
19	18	17	
24	22	16	
17	22	17	
26	17	16	
29	11	17	
23	13	26	
27	14	21	
19	18	24	
21	21	18	
25	28	16	
18	21	23	
20	18	16	
20	17	16	
33	19	17	
24	21	21	
30	18	28	
24	21	17	
17	11	21	
24	22	14	
20	14	13	
19	19	14	
26	23	18	
16	28	17	
20	21	26	
22	15	14	
20	20	17	
20	26	32	
19	13	16	
17	18	16	
33	15	26	
23	11	19	
20	15	28	
23	22	25	
18	11	23	
18	17	15	
20	18	22	
24	16	22	
17	20	22	
23	15	13	
25	24	22	
29	17	13	
20	16	16	
17	13	21	
20	16	14	
18	20	13	
18	19	20	
16	19	14	
21	17	21	
25	14	22	
29	24	22	
20	15	22	
25	21	16	
15	12	19	
16	13	24	
16	17	14	
27	17	23	
21	20	18	
26	18	20	
21	24	18	
24	12	19	
14	18	23	
28	14	24	
17	17	23	
28	17	11	
28	18	17	
32	16	13	
27	12	25	
13	12	16	
20	16	13	
23	14	27	
17	13	14	
22	19	21	
13	13	15	
27	15	23	
25	18	22	
26	13	13	
27	21	17	
16	21	17	
16	16	21	
15	17	16	
26	26	23	
30	12	22	
21	25	15	
25	19	17	
22	16	20	
19	15	17	
17	22	11	
19	18	18	
13	11	14	
19	20	19	
12	17	15	
23	14	9	
20	13	19	
20	16	18	
19	15	22	
19	19	17	
19	25	14	
14	10	16	
21	22	20	
15	14	16	
17	12	11	
23	20	21	
17	14	16	
19	19	21	
18	10	19	
19	11	12	
19	11	20	
18	19	15	
23	12	14	
23	15	15	
19	10	22	
12	16	17	
22	25	12	
17	9	18	
21	13	15	
20	14	17	
21	16	26	
31	12	19	
16	9	17	
19	7	24	
20	17	23	
23	14	21	
19	20	19	
18	18	18	
27	18	10	
25	21	16	
10	16	16	
29	23	22	
31	22	21	
20	15	18	
16	12	29	
22	12	20	
12	14	13	
24	15	22	
20	20	20	
18	20	15	
17	16	20	
19	22	14	
18	14	15	
14	16	14	
16	13	21	
21	16	27	
17	21	18	
15	18	5	
23	13	17	
13	13	22	
18	23	19	
27	19	16	
22	19	14	
17	9	16	
17	15	20	
15	20	19	
20	14	20	
17	19	14	
19	20	20	
16	17	21	
17	14	14	
22	12	18	
11	14	14	
15	16	25	
28	14	12	
17	23	17	
21	9	20	
14	23	17	
21	10	14	
19	24	13	
16	14	20	
17	24	16	
20	20	17	
25	14	15	
18	19	14	
20	21	11	
22	16	15	
23	14	13	
22	15	14	
17	21	17	
9	14	26	
17	15	21	
13	20	15	
14	11	18	
19	19	22	
21	10	11	
10	19	16	
23	23	20	
24	22	13	
15	16	11	
14	18	19	
22	15	14	
20	20	20	
18	23	18	
16	18	13	
15	8	20	
18	18	17	
16	18	20	
19	21	19	
24	14	15	
23	15	15	
21	18	12	
18	9	16	
26	15	22	
20	19	9	
19	23	10	
17	18	17	
13	14	20	
12	17	17	
23	23	12	
21	20	20	
19	22	18	
24	17	20	
13	20	10	
15	11	16	
12	19	18	
17	17	20	
20	13	12	
21	14	12	
18	11	23	
11	15	10	
22	14	18	
17	9	18	
14	10	21	
12	15	16	
16	8	19	
18	16	11	
18	9	17	
22	13	21	
17	15	22	
18	29	27	
26	19	13	
24	14	11	
19	15	12	
15	16	19	
16	9	15	
19	17	17	
13	20	16	
19	15	20	
18	20	14	
22	15	19	
15	20	16	
17	13	21	
9	9	16	
28	12	20	
17	15	11	
22	19	25	
17	18	15	
22	14	12	
12	18	15	
17	15	19	
13	22	19	
12	15	23	
17	21	13	
20	12	14	
16	11	18	
19	13	15	
20	16	24	
19	16	16	
15	12	19	
22	6	14	
13	20	15	
15	25	9	
18	12	15	
13	15	19	
17	19	12	
15	20	18	
12	10	17	
20	12	8	
20	16	18	
19	15	15	
16	11	13	
14	10	19	
11	10	9	
16	15	16	
14	18	11	
22	20	14	
11	21	18	
11	21	11	
17	10	15	
19	17	13	
14	11	20	
16	18	21	
15	10	10	
16	10	10	
18	10	15	
19	9	16	
11	6	17	
20	10	13	
19	14	17	
11	15	16	
12	17	13	
17	19	13	
17	22	15	
17	11	18	
17	9	13	
10	14	16	
16	16	15	
19	15	22	
14	16	10	
9	12	17	
26	18	11	
16	16	14	
14	21	11	
14	14	11	
14	10	9	
12	6	14	
23	15	19	
22	12	17	
17	15	19	
14	8	11	
9	16	11	
12	17	8	
19	16	19	
13	21	17	
11	14	17	
23	9	17	
12	13	19	
14	10	22	
14	12	12	
26	13	15	
14	14	19	
17	12	10	
19	14	15	
17	12	9	
13	13	12	
17	9	19	
14	20	10	
11	12	12	
20	11	21	
22	11	18	
20	16	13	
26	10	14	
23	11	20	
17	12	14	
13	13	20	
9	10	16	
18	13	18	
15	15	11	
16	8	20	
18	12	18	
14	12	18	
19	13	14	
19	17	7	
15	14	22	
16	15	15	
26	13	16	
13	15	10	
20	14	17	
12	17	15	
11	16	17	
8	13	14	
16	13	13	
10	11	16	
28	15	15	
18	17	8	
15	13	13	
19	12	17	
22	10	19	
9	12	14	
15	18	20	
20	16	17	
15	11	20	
13	8	14	
14	18	23	
15	10	20	
20	12	18	
15	11	12	
14	9	19	
14	18	10	
18	21	13	
13	15	22	
21	16	9	
16	10	11	
12	14	12	
16	20	14	
16	11	22	
15	13	10	
12	12	16	
10	14	18	
17	18	13	
14	15	16	
17	11	21	
15	10	15	
12	17	15	
10	15	9	
19	16	16	
14	17	17	
15	13	13	
21	13	18	
11	12	13	
14	11	14	
23	15	16	
17	18	13	
13	15	16	
17	13	17	
16	15	17	
16	13	20	
22	17	14	
11	9	11	
19	15	12	
12	9	11	
18	16	13	
11	7	21	
15	22	13	
12	9	12	
12	7	15	
22	13	14	
18	13	15	
11	28	16	
19	16	19	
25	13	15	
9	20	25	
15	11	13	
14	15	18	
12	12	13	
10	16	16	
22	18	9	
20	15	13	
21	18	16	
12	13	10	
18	17	14	
13	16	13	
16	16	15	
14	12	16	
15	11	17	
12	11	16	
14	9	15	
14	16	13	
16	11	13	
20	10	18	
16	19	14	
13	9	15	
13	13	16	
19	13	7	
9	10	19	
19	15	13	
19	16	20	
15	7	10	
12	8	18	
15	14	9	
16	13	19	
17	11	14	
18	17	12	
14	15	13	
12	14	19	
17	14	14	
11	19	11	
13	11	15	
14	19	15	
22	20	9	
13	14	18	
18	9	13	
11	15	20	
13	16	11	
12	12	15	
20	9	18	
12	8	13	
16	8	12	
16	20	12	
18	10	6	
20	8	12	
19	10	16	
15	12	9	
22	14	12	
17	16	13	
10	11	11	
17	11	16	
17	12	12	
12	17	15	
10	9	9	
15	16	12	
9	12	14	
15	12	6	
15	16	17	
17	12	11	
14	14	19	
15	18	12	
17	12	17	
13	10	14	
12	18	10	
17	13	15	
11	15	11	
14	15	14	
19	16	11	
10	13	11	
14	18	21	
10	20	8	
21	12	12	
14	8	9	
12	10	17	
17	12	5	
18	13	14	
15	10	17	
19	12	17	
16	13	12	
17	10	15	
13	6	8	
19	9	18	
14	11	23	
24	15	8	
13	14	11	
17	15	16	
18	15	17	
15	15	15	
14	7	10	
15	9	12	
16	13	19	
12	13	16	
14	15	17	
16	9	11	
13	16	14	
17	11	19	
16	8	14	
14	14	17	
11	18	18	
21	13	13	
15	7	12	
11	8	15	
11	10	17	
19	15	15	
25	16	13	
13	6	9	
15	12	16	
9	11	12	
17	8	11	
22	9	13	
15	12	15	
12	13	14	
13	10	14	
10	12	17	
12	11	9	
4	5	14	
15	9	15	
14	8	17	
7	14	15	
19	17	11	
10	13	13	
13	9	14	
13	14	17	
14	12	9	
16	16	14	
19	13	12	
11	8	6	
10	9	13	
14	13	19	
12	12	13	
14	8	20	
10	16	18	
12	9	14	
23	11	17	
17	10	13	
18	13	11	
7	9	15	
15	19	14	
15	10	10	
14	15	15	
20	13	18	
19	10	21	
15	14	12	
10	8	15	
12	9	14	
10	9	9	
15	7	10	
9	7	11	
15	12	18	
15	15	11	
13	13	15	
10	15	9	
17	13	10	
11	8	13	
12	12	20	
15	10	16	
12	9	12	
9	13	12	
11	5	15	
17	9	17	
14	9	16	
15	16	22	
16	14	11	
8	10	15	
10	17	17	
7	11	11	
13	11	12	
7	17	11	
14	16	18	
12	11	17	
7	14	15	
11	20	11	
15	12	15	
13	9	18	
11	10	8	
10	4	11	
14	9	9	
18	15	15	
21	16	16	
12	14	13	
13	11	8	
13	6	7	
16	7	9	
14	11	18	
8	10	20	
16	11	13	
11	14	19	
14	16	10	
11	9	11	
14	9	17	
6	9	13	
15	11	12	
18	7	11	
18	13	17	
18	10	12	
12	9	18	
8	18	14	
15	14	15	
13	8	13	
14	14	10	
7	7	14	
12	10	11	
14	10	16	
9	12	12	
15	10	11	
8	12	19	
12	10	17	
13	10	10	
12	13	13	
18	12	8	
14	12	11	
13	6	11	
16	14	13	
14	7	13	
16	9	10	
10	19	18	
16	12	15	
13	14	10	
15	6	11	
17	8	15	
12	12	14	
11	8	15	
17	22	17	
8	12	12	
7	11	14	
17	12	13	
7	15	8	
14	11	18	
16	12	19	
10	12	12	
19	12	13	
12	9	13	
21	16	11	
11	12	18	
14	11	12	
16	4	10	
18	5	12	
16	13	12	
12	12	16	
7	6	13	
16	12	10	
12	6	12	
12	12	17	
11	16	10	
15	7	17	
17	10	13	
11	10	14	
20	13	12	
12	8	12	
17	10	16	
15	10	12	
12	15	16	
16	11	6	
20	11	13	
13	15	13	
15	10	8	
8	11	15	
15	12	13	
11	8	17	
12	12	10	
17	13	7	
11	5	10	
13	10	10	
9	16	6	
13	9	9	
6	6	6	
14	9	9	
5	9	13	
14	10	18	
12	8	16	
14	14	11	
7	10	14	
11	10	9	
13	9	14	
12	10	14	
10	8	13	
14	16	15	
8	15	9	
17	9	16	
13	9	8	
16	15	13	
14	12	10	
18	5	14	
14	16	7	
15	10	12	
13	13	17	
12	19	15	
16	12	11	
14	9	17	
9	11	10	
12	7	13	
11	7	14	
15	10	23	
17	8	13	
14	17	14	
16	15	16	
8	18	12	
11	10	19	
10	6	16	
6	13	19	
9	12	14	
4	8	15	
15	6	8	
10	7	14	
13	12	17	
9	6	13	
14	20	19	
10	7	18	
14	14	11	
16	10	15	
15	6	9	
9	13	15	
12	8	11	
13	5	13	
16	14	7	
12	14	17	
13	5	11	
14	10	13	
13	6	13	
12	7	21	
22	10	15	
5	9	13	
14	8	17	
17	8	12	
19	12	18	
17	10	9	
8	15	20	
12	3	13	
8	9	7	
7	7	15	
13	5	14	
10	12	14	
10	15	10	
16	7	8	
11	10	12	
6	6	12	
14	6	10	
14	10	13	
11	10	16	
14	10	13	
10	7	10	
13	10	12	
12	10	14	
13	12	16	
12	7	4	
10	10	15	
13	11	14	
8	9	8	
12	9	10	
17	7	15	
15	6	12	
13	4	17	
14	12	14	
15	9	6	
10	11	8	
19	9	12	
14	16	17	
18	5	12	
10	14	11	
11	14	12	
12	11	12	
6	8	9	
8	6	12	
13	7	8	
10	7	12	
9	10	12	
9	10	12	
8	8	6	
11	13	15	
8	11	9	
12	8	9	
10	12	12	
14	11	12	
12	18	11	
9	12	10	
12	12	7	
10	13	10	
12	11	11	
13	11	9	
14	17	11	
12	17	19	
13	12	12	
14	6	13	
12	8	6	
8	10	15	
9	15	13	
12	19	9	
12	8	12	
5	12	15	
9	4	9	
12	12	14	
14	7	17	
18	11	15	
10	6	17	
10	14	11	
8	10	5	
9	8	6	
9	12	9	
13	11	8	
11	11	13	
11	10	16	
9	7	12	
12	15	7	
13	7	8	
13	7	10	
14	14	8	
15	12	12	
8	10	8	
9	7	10	
9	6	15	
12	7	12	
10	15	16	
10	12	21	
11	7	11	
6	10	13	
5	6	12	
9	5	8	
8	9	10	
9	9	12	
12	10	15	
8	9	2	
10	13	13	
13	7	15	
6	4	18	
13	8	11	
9	7	14	
8	13	18	
12	10	10	
10	9	12	
10	7	9	
17	14	11	
11	9	10	
7	14	9	
7	13	15	
16	11	15	
7	8	18	
6	12	14	
13	12	18	
8	14	17	
11	16	12	
12	15	10	
13	13	14	
12	7	15	
9	9	17	
11	9	13	
14	14	8	
8	10	13	
13	7	11	
5	7	8	
15	7	6	
10	12	8	
9	17	15	
13	4	11	
11	10	13	
10	10	15	
6	14	9	
7	8	7	
9	12	15	
7	12	11	
12	4	6	
8	4	21	
11	8	15	
13	10	15	
8	12	11	
18	5	12	
9	13	6	
15	13	10	
7	8	13	
12	14	13	
10	10	9	
14	11	12	
19	6	13	
15	12	8	
4	9	10	
11	11	13	
9	9	10	
9	7	10	
11	6	13	
9	14	4	
11	7	11	
12	8	10	
12	6	10	
13	13	12	
13	7	9	
9	12	8	
6	6	23	
11	13	19	
11	8	17	
11	12	9	
11	12	14	
9	7	15	
10	9	8	
9	18	12	
7	16	6	
14	14	9	
9	6	11	
7	10	8	
8	10	6	
12	9	9	
14	12	19	
9	7	15	
11	9	16	
9	6	15	
9	5	11	
14	8	11	
8	5	15	
6	9	14	
9	9	12	
13	7	9	
8	6	11	
9	8	5	
8	12	10	
8	8	13	
9	6	14	
15	16	6	
8	14	15	
9	10	15	
4	10	9	
12	11	11	
8	5	10	
13	8	6	
6	13	12	
8	7	13	
6	7	10	
6	10	13	
8	10	13	
11	7	11	
8	8	15	
8	9	21	
11	6	9	
9	8	9	
9	9	12	
11	13	13	
11	9	10	
10	12	25	
10	9	6	
6	12	12	
20	13	15	
13	10	9	
8	5	14	
7	6	14	
8	5	17	
11	12	15	
11	8	15	
11	6	10	
3	13	13	
12	5	10	
10	10	8	
13	10	10	
8	9	7	
12	9	11	
13	7	13	
11	7	8	
7	7	4	
6	8	8	
13	2	12	
11	11	8	
16	4	10	
6	13	6	
13	14	10	
10	14	12	
5	11	13	
12	5	14	
8	8	9	
7	10	14	
14	10	11	
10	5	12	
13	8	6	
14	9	13	
16	6	12	
4	5	7	
10	9	14	
19	15	11	
11	7	14	
11	12	13	
14	12	15	
8	16	8	
7	5	15	
4	4	12	
4	10	10	
7	12	9	
14	11	12	
13	6	10	
11	12	6	
8	13	16	
10	5	15	
12	5	12	
15	15	9	
10	10	6	
9	12	15	
11	9	11	
13	6	14	
8	12	14	
8	7	8	
14	10	9	
9	7	10	
6	6	14	
13	5	12	
8	6	11	
8	10	8	
8	7	11	
13	12	9	
8	10	22	
10	14	11	
5	7	15	
14	9	7	
8	15	7	
10	6	16	
9	9	15	
11	4	19	
12	6	7	
6	4	17	
12	7	9	
8	10	10	
3	6	7	
9	8	8	
11	10	10	
9	16	10	
8	12	5	
10	11	17	
9	9	8	
11	18	15	
7	7	14	
13	13	7	
7	11	9	
10	8	9	
9	8	10	
7	7	18	
12	6	6	
10	7	9	
7	14	10	
8	8	12	
10	12	10	
10	10	8	
5	5	10	
10	7	14	
13	12	10	
15	8	13	
10	15	13	
9	10	11	
17	7	11	
11	14	6	
15	10	17	
10	10	12	
6	8	16	
13	11	10	
14	8	10	
12	8	7	
6	10	8	
6	8	8	
9	12	5	
12	11	11	
13	11	9	
12	11	13	
11	8	8	
9	7	7	
12	12	8	
11	10	7	
4	10	12	
7	8	14	
15	15	17	
8	9	12	
7	5	10	
9	10	16	
15	7	12	
11	7	11	
8	9	13	
8	10	14	
7	8	8	
10	9	9	
2	12	11	
15	6	9	
10	11	10	
8	13	11	
11	14	11	
5	11	13	
11	9	10	
7	7	15	
12	8	11	
12	9	14	
9	9	14	
9	9	5	
12	13	15	
9	8	6	
14	7	9	
8	11	13	
11	8	15	
3	8	11	
8	11	10	
10	7	14	
12	10	15	
12	9	17	
9	10	13	
8	7	5	
9	7	10	
16	7	12	
7	6	11	
8	12	14	
9	15	10	
8	12	14	
6	8	9	
5	8	8	
12	8	10	
9	9	6	
11	3	7	
11	9	11	
6	4	9	
7	7	9	
8	8	5	
12	2	16	
8	3	13	
7	4	12	
7	8	10	
12	8	9	
6	10	10	
10	9	12	
8	8	7	
12	11	14	
7	9	8	
10	8	11	
12	13	16	
14	8	9	
15	10	13	
11	9	9	
11	9	10	
14	9	7	
9	10	11	
15	15	13	
13	5	12	
11	6	9	
7	8	13	
10	8	11	
4	13	11	
8	13	14	
9	6	14	
7	10	11	
8	10	6	
5	3	14	
8	8	11	
11	10	16	
14	9	10	
5	6	22	
9	8	13	
6	13	11	
11	11	7	
6	10	15	
10	9	8	
9	12	11	
12	7	7	
10	4	9	
9	8	7	
11	9	15	
9	2	14	
13	6	10	
11	8	5	
11	8	7	
9	5	4	
6	14	5	
13	13	8	
12	8	10	
5	7	14	
17	7	10	
3	8	10	
13	13	7	
9	9	9	
11	8	9	
5	8	9	
11	6	11	
3	7	8	
10	3	9	
7	8	10	
11	9	16	
11	10	7	
7	4	12	
8	7	9	
12	10	9	
6	6	7	
6	5	9	
9	7	11	
13	12	8	
14	11	14	
8	14	12	
12	11	12	
6	10	9	
12	5	10	
9	10	5	
8	9	15	
4	7	13	
10	5	11	
11	4	12	
7	4	7	
9	14	10	
11	8	9	
14	6	7	
3	12	9	
9	11	10	
9	8	11	
8	7	21	
9	9	14	
6	6	9	
10	13	10	
2	5	6	
9	8	10	
9	9	7	
11	6	16	
11	9	17	
10	4	10	
9	5	13	
11	10	13	
10	4	17	
9	12	6	
7	6	12	
10	4	17	
10	11	10	
5	8	10	
9	5	12	
13	5	16	
10	11	11	
9	9	13	
16	4	8	
6	11	9	
8	14	9	
7	15	11	
10	6	13	
10	7	11	
11	9	13	
11	4	10	
13	6	10	
10	7	9	
13	6	9	
6	8	13	
13	8	10	
6	11	9	
10	6	10	
7	7	8	
8	8	10	
11	4	15	
8	7	10	
9	6	12	
5	5	9	
15	10	8	
11	8	10	
11	9	13	
10	6	8	
9	9	9	
9	6	6	
14	12	6	
10	7	12	
14	9	14	
8	8	7	
6	2	13	
13	7	9	
8	15	7	
7	10	5	
8	4	9	
9	8	12	
3	9	13	
11	8	12	
13	7	10	
12	9	8	
7	7	10	
7	11	9	
14	8	11	
7	17	12	
8	4	7	
6	9	8	
10	7	9	
16	13	8	
4	5	7	
13	9	14	
3	7	7	
5	4	8	
7	6	11	
8	8	9	
11	13	8	
13	7	20	
8	5	15	
4	9	4	
11	9	15	
9	5	12	
10	7	4	
11	8	12	
7	9	10	
6	9	13	
10	10	12	
9	5	14	
5	8	10	
8	12	18	
7	5	6	
9	5	13	
6	10	12	
11	5	9	
10	5	16	
8	13	13	
9	6	18	
8	10	9	
7	8	7	
17	5	10	
4	6	15	
6	9	8	
9	17	13	
11	5	16	
9	14	13	
8	18	4	
8	9	15	
9	5	8	
4	10	13	
8	6	16	
14	9	10	
11	7	11	
5	11	8	
13	10	10	
11	6	7	
6	5	13	
10	8	9	
9	9	8	
9	11	12	
10	7	10	
7	7	10	
10	8	15	
8	9	5	
19	9	8	
6	6	7	
8	9	7	
3	7	5	
9	8	5	
15	4	9	
8	7	9	
13	5	14	
12	6	11	
8	12	12	
10	5	7	
6	6	13	
10	5	13	
8	6	12	
10	5	13	
6	11	9	
11	5	13	
9	13	14	
9	7	9	
8	8	11	
8	8	6	
6	8	10	
4	13	9	
4	10	12	
11	3	7	
10	13	12	
9	8	7	
7	8	12	
9	8	7	
11	4	8	
6	6	15	
15	12	11	
9	8	10	
10	9	6	
9	8	11	
10	8	13	
6	4	12	
10	5	9	
6	6	8	
9	7	8	
3	14	10	
6	6	13	
3	10	7	
10	7	4	
15	7	5	
12	9	11	
11	7	10	
10	7	14	
4	6	14	
8	4	7	
6	6	12	
12	12	6	
5	8	4	
6	4	14	
7	8	9	
12	7	15	
14	11	11	
2	11	10	
8	4	14	
4	7	10	
11	9	13	
16	9	8	
5	13	10	
8	8	13	
8	9	11	
6	10	9	
7	8	12	
7	6	11	
7	3	11	
7	5	6	
10	8	9	
10	9	13	
9	7	9	
11	11	7	
6	7	10	
10	4	5	
7	14	8	
8	9	11	
5	11	15	
5	8	10	
11	6	11	
10	11	15	
11	10	7	
12	15	12	
13	12	3	
6	4	13	
11	9	11	
10	4	7	
9	7	10	
8	5	9	
8	8	13	
7	8	13	
9	7	9	
6	8	7	
11	7	12	
10	8	7	
7	14	15	
3	7	9	
10	7	7	
3	6	9	
15	4	4	
6	5	2	
6	7	10	
9	4	10	
14	2	12	
8	7	6	
9	5	9	
6	5	14	
7	9	8	
7	6	4	
8	6	10	
5	9	13	
4	9	17	
7	3	11	
8	1	7	
10	5	10	
6	8	8	
8	10	10	
11	9	11	
7	6	8	
9	10	6	
8	11	4	
6	7	12	
7	6	6	
6	5	14	
6	10	8	
11	7	11	
15	5	9	
7	10	8	
4	5	7	
8	7	13	
9	7	11	
5	11	8	
5	5	9	
9	7	8	
10	10	13	
10	5	9	
7	7	4	
10	8	8	
9	7	16	
8	8	10	
2	7	12	
3	10	7	
8	6	8	
9	7	8	
12	8	8	
5	6	18	
7	8	8	
16	7	8	
7	8	8	
8	9	12	
3	6	9	
9	14	13	
7	7	8	
11	8	14	
14	1	9	
9	9	13	
8	8	10	
8	12	10	
4	7	5	
8	8	12	
9	4	4	
10	6	10	
3	7	10	
8	6	9	
8	7	8	
9	11	11	
13	8	6	
10	4	10	
7	6	6	
7	7	11	
8	9	14	
4	9	10	
10	7	14	
8	5	10	
6	4	13	
9	9	16	
9	8	4	
4	14	8	
10	8	8	
5	2	8	
6	11	10	
7	8	8	
12	4	7	
7	5	9	
8	12	12	
6	11	7	
7	6	12	
5	9	12	
8	7	5	
11	10	9	
10	4	6	
7	7	14	
7	6	3	
2	4	7	
7	6	4	
8	11	10	
10	8	4	
10	14	13	
10	8	13	
4	3	13	
5	13	7	
7	8	13	
9	6	8	
8	4	11	
7	8	9	
16	4	10	
3	5	11	
5	11	8	
8	5	8	
16	11	7	
5	5	8	
7	5	12	
7	9	6	
10	10	9	
6	6	10	
7	17	6	
14	14	10	
8	12	7	
10	7	8	
9	10	17	
5	5	6	
10	9	12	
6	5	12	
6	10	8	
11	7	15	
9	5	7	
8	7	10	
5	7	9	
4	6	12	
8	3	5	
10	10	8	
5	6	7	
5	7	11	
16	13	9	
4	10	8	
13	7	7	
15	12	12	
6	7	9	
6	5	9	
8	7	11	
10	8	9	
3	9	5	
4	7	11	
3	11	9	
5	7	14	
4	6	6	
1	8	13	
12	8	11	
8	4	12	
11	5	13	
8	11	8	
6	7	11	
5	5	5	
4	8	10	
4	1	11	
4	7	13	
11	8	13	
6	7	8	
11	14	8	
6	9	11	
10	7	8	
9	5	11	
8	8	8	
6	7	6	
9	6	10	
8	4	11	
5	7	16	
11	7	8	
2	1	8	
7	8	12	
8	9	18	
7	4	8	
4	4	14	
7	9	9	
6	9	8	
8	8	8	
5	12	8	
10	6	10	
5	5	10	
16	5	7	
8	8	13	
10	4	10	
6	4	6	
8	9	15	
6	10	17	
9	6	8	
4	5	8	
5	8	14	
12	4	8	
8	8	9	
6	3	10	
11	7	8	
4	8	3	
7	6	11	
3	9	7	
10	4	15	
11	6	9	
8	7	8	
4	7	11	
4	8	7	
16	4	16	
8	7	10	
12	7	7	
6	4	6	
14	6	10	
7	7	12	
4	7	13	
10	4	9	
6	9	6	
5	5	11	
5	9	11	
7	7	17	
8	1	10	
7	4	7	
9	7	15	
11	9	11	
9	10	8	
11	9	9	
11	8	12	
6	11	5	
7	8	12	
10	2	11	
5	7	10	
8	4	4	
5	13	11	
9	5	7	
7	5	6	
8	5	8	
7	7	9	
5	5	8	
10	8	11	
10	5	13	
6	4	4	
11	5	6	
5	2	10	
8	10	7	
10	6	9	
7	10	8	
11	8	6	
1	4	10	
6	8	12	
3	7	7	
9	7	11	
7	3	11	
6	6	8	
4	2	10	
6	5	8	
8	4	14	
8	5	10	
7	8	10	
8	8	11	
10	6	7	
5	5	12	
4	4	5	
8	2	8	
6	11	7	
7	4	9	
8	5	10	
5	6	12	
7	4	11	
10	6	8	
2	4	8	
5	8	7	
8	4	5	
4	3	4	
6	7	9	
7	6	10	
2	6	11	
12	6	13	
5	11	8	
11	7	9	
12	10	8	
7	8	10	
8	3	3	
9	6	8	
5	6	12	
12	10	11	
15	6	7	
10	16	11	
10	9	6	
3	6	10	
10	9	9	
8	8	9	
6	6	8	
8	8	10	
9	5	16	
7	2	3	
9	11	2	
7	6	8	
8	6	8	
9	9	10	
5	7	6	
6	6	6	
4	4	9	
7	2	8	
5	7	11	
12	5	6	
6	7	11	
5	9	8	
8	3	10	
6	4	10	
8	3	6	
8	5	9	
7	4	6	
2	4	10	
8	5	10	
5	8	11	
9	8	6	
10	6	6	
5	5	7	
8	6	9	
3	1	6	
1	2	3	
8	6	10	
7	7	11	
9	7	8	
6	8	5	
4	3	8	
9	9	5	
5	3	12	
12	8	8	
7	6	5	
6	11	4	
2	6	13	
6	6	13	
7	2	12	
7	9	7	
8	13	16	
9	5	14	
7	5	10	
7	6	8	
12	7	9	
10	6	8	
4	6	10	
7	7	6	
8	7	6	
7	5	10	
8	7	11	
6	9	8	
5	8	5	
7	7	10	
5	6	11	
4	6	14	
8	5	6	
4	10	5	
3	4	11	
13	10	9	
9	5	6	
7	4	11	
8	6	10	
8	7	11	
7	3	4	
9	6	9	
6	4	4	
7	9	9	
9	8	6	
7	3	14	
5	10	6	
11	5	11	
6	8	11	
9	6	8	
6	9	8	
4	2	8	
6	8	6	
5	2	10	
1	6	10	
9	7	8	
10	3	13	
7	4	9	
5	12	8	
6	3	11	
6	2	9	
5	7	8	
5	7	4	
9	4	9	
7	5	8	
8	6	10	
6	6	10	
6	6	12	
7	6	11	
10	7	9	
6	6	8	
4	3	7	
7	10	14	
6	8	11	
6	5	9	
11	11	8	
4	2	7	
4	5	5	
7	7	6	
8	8	4	
12	5	7	
3	4	9	
5	6	11	
12	4	12	
5	2	10	
6	6	10	
6	4	12	
9	4	13	
6	8	11	
11	3	7	
11	13	8	
2	3	4	
5	7	10	
6	6	11	
5	6	11	
12	7	8	
2	6	9	
12	6	9	
8	5	9	
8	9	11	
11	12	12	
4	6	6	
10	6	9	
6	8	5	
8	9	9	
4	7	5	
6	9	8	
8	7	6	
9	9	10	
10	9	9	
1	5	6	
7	7	12	
9	3	12	
12	6	9	
3	2	8	
4	9	9	
5	3	12	
7	9	7	
8	7	8	
4	10	10	
10	4	12	
6	6	10	
6	5	8	
8	6	3	
10	1	12	
10	4	13	
8	6	11	
6	12	13	
0	5	6	
5	1	10	
7	6	15	
8	9	11	
7	8	9	
6	11	6	
8	5	8	
5	5	9	
7	8	6	
7	6	10	
4	5	11	
7	6	6	
5	2	9	
6	2	7	
9	5	6	
7	5	19	
5	8	10	
6	8	11	
4	8	8	
5	8	8	
4	9	13	
10	4	12	
6	5	3	
5	6	11	
8	3	10	
9	5	8	
8	9	5	
13	5	8	
6	3	5	
7	8	7	
5	3	6	
11	6	9	
8	5	7	
5	7	12	
12	8	4	
5	4	9	
3	5	6	
4	5	10	
3	6	5	
11	4	6	
5	8	11	
4	12	6	
9	5	7	
4	4	6	
7	6	13	
6	6	10	
11	6	14	
10	8	9	
15	6	7	
7	6	4	
10	5	14	
10	7	10	
3	6	10	
6	9	6	
8	5	17	
8	5	9	
7	8	4	
7	4	11	
5	9	9	
5	4	8	
9	7	13	
10	7	12	
4	8	9	
3	8	7	
8	6	10	
7	6	10	
8	7	5	
5	5	8	
8	7	7	
9	3	13	
6	7	10	
9	7	12	
5	7	10	
3	4	8	
6	6	7	
8	7	7	
4	2	6	
2	5	9	
7	6	7	
8	2	10	
5	4	8	
4	4	8	
5	7	10	
7	3	5	
7	6	9	
6	8	11	
2	7	9	
3	5	12	
6	5	12	
10	6	11	
7	3	6	
3	7	9	
9	5	8	
5	6	7	
4	3	9	
2	6	10	
7	6	12	
2	8	10	
7	8	11	
7	11	6	
9	8	5	
7	4	6	
6	7	5	
6	6	11	
2	4	4	
3	6	12	
4	7	11	
6	4	10	
9	6	6	
11	5	10	
6	7	12	
9	7	5	
5	4	2	
3	8	6	
3	4	7	
3	2	5	
5	3	10	
5	10	14	
6	4	5	
5	5	10	
4	7	9	
9	3	9	
6	4	3	
5	7	10	
7	5	13	
5	7	6	
3	6	5	
8	10	6	
6	0	8	
8	4	8	
4	9	10	
5	7	11	
10	5	7	
6	1	12	
8	6	10	
6	3	6	
4	7	4	
5	6	9	
9	8	13	
6	7	8	
6	2	10	
6	10	12	
4	3	9	
6	13	5	
5	4	6	
5	7	10	
12	9	7	
3	8	11	
8	3	7	
10	6	6	
5	9	11	
8	6	10	
5	7	14	
6	7	7	
8	5	7	
11	3	11	
10	5	6	
9	4	5	
9	6	13	
5	6	8	
5	7	8	
5	8	11	
9	4	5	
12	6	6	
3	4	7	
6	2	9	
8	3	9	
10	4	7	
5	5	10	
4	8	11	
9	6	8	
6	4	7	
5	3	6	
7	8	5	
3	5	13	
7	4	5	
8	5	7	
4	9	10	
5	7	10	
6	3	8	
4	10	5	
4	6	8	
3	6	8	
4	7	13	
9	4	10	
5	5	5	
7	11	9	
6	6	10	
3	5	12	
9	5	10	
9	8	8	
7	8	3	
6	3	11	
6	9	10	
5	3	7	
3	7	10	
6	4	8	
5	8	13	
2	3	10	
5	2	9	
6	8	6	
5	6	15	
5	7	6	
5	3	10	
6	6	10	
4	6	10	
4	3	8	
6	2	11	
6	6	10	
3	5	14	
7	6	6	
4	7	13	
8	4	11	
6	6	9	
5	10	5	
3	7	16	
10	5	10	
5	4	11	
9	4	6	
8	7	6	
7	6	13	
4	7	10	
6	5	11	
7	5	9	
2	7	10	
6	3	12	
5	3	11	
2	5	13	
5	3	9	
7	9	7	
2	3	12	
3	5	3	
5	7	10	
3	8	10	
5	6	8	
6	10	13	
7	4	4	
6	8	7	
8	5	10	
5	6	11	
5	3	8	
3	7	13	
7	3	7	
5	4	5	
7	7	11	
10	3	8	
2	6	6	
4	4	5	
7	9	12	
8	4	5	
6	6	12	
7	7	13	
2	7	7	
8	4	14	
2	12	12	
5	4	11	
4	7	13	
13	4	5	
6	6	9	
4	3	4	
5	5	7	
5	3	12	
6	7	10	
10	9	12	
4	4	11	
6	5	14	
9	6	9	
9	7	8	
6	8	10	
8	7	6	
7	4	7	
14	6	7	
7	0	11	
9	7	7	
9	6	8	
4	8	15	
4	4	7	
11	4	7	
2	2	7	
4	6	11	
10	1	10	
6	4	10	
10	6	3	
3	6	9	
6	4	6	
11	6	11	
6	5	4	
7	4	13	
1	6	11	
6	6	7	
8	2	10	
4	6	6	
7	4	6	
8	4	11	
8	7	1	
5	2	12	
8	3	8	
4	5	3	
4	3	11	
2	11	9	
5	3	8	
4	9	9	
7	7	13	
7	5	9	
6	7	15	
8	6	6	
7	7	8	
4	6	6	
5	5	7	
8	3	6	
3	6	4	
3	5	9	
2	3	8	
8	6	9	
4	3	10	
5	6	8	
4	4	14	
8	5	7	
2	4	6	
3	7	10	
4	9	12	
4	8	9	
10	1	3	
4	3	6	
2	6	8	
3	7	11	
13	9	8	
6	2	7	
6	4	11	
10	4	8	
4	8	12	
8	4	8	
2	2	4	
8	6	7	
5	10	5	
2	10	4	
7	6	5	
7	6	11	
3	5	7	
5	4	7	
4	6	3	
6	1	9	
9	7	6	
6	4	6	
8	3	7	
6	4	5	
4	3	8	
6	5	8	
4	1	10	
6	1	6	
4	5	14	
9	3	11	
4	6	7	
1	4	9	
5	9	11	
8	1	8	
10	2	13	
8	6	6	
3	3	10	
7	2	10	
9	6	6	
7	5	10	
11	5	9	
3	6	9	
5	3	8	
2	2	11	
7	3	8	
5	4	8	
6	7	6	
8	8	14	
6	4	7	
4	5	6	
5	6	7	
3	7	6	
6	2	10	
5	7	12	
8	5	7	
7	10	11	
8	5	7	
5	5	5	
6	4	9	
7	9	9	
9	5	9	
5	5	13	
3	3	9	
6	5	6	
8	3	4	
3	5	8	
7	7	9	
7	6	9	
4	4	7	
5	4	11	
3	4	10	
4	8	6	
4	4	5	
6	3	6	
6	5	7	
8	4	6	
2	2	10	
6	4	5	
4	6	12	
8	6	11	
5	11	6	
5	6	7	
5	4	7	
9	5	7	
1	7	4	
3	3	6	
9	6	9	
4	5	5	
6	7	8	
4	6	6	
2	4	9	
5	4	6	
5	5	7	
9	1	15	
2	4	7	
8	3	7	
4	7	7	
3	8	11	
7	10	8	
8	10	6	
5	9	11	
5	7	10	
6	2	8	
4	5	9	
5	0	9	
5	4	7	
2	6	8	
9	5	8	
3	7	6	
6	7	5	
11	3	8	
6	5	9	
3	8	10	
4	3	9	
3	7	3	
3	6	2	
9	4	10	
2	5	8	
7	8	11	
4	5	5	
3	8	8	
5	4	7	
3	2	8	
4	8	4	
4	7	9	
4	3	8	
3	6	11	
7	9	6	
4	3	7	
5	3	11	
4	5	5	
2	4	12	
5	3	8	
6	1	11	
8	6	6	
9	5	6	
4	6	11	
7	10	4	
2	6	10	
8	4	6	
4	9	6	
7	8	4	
4	7	7	
8	4	11	
6	8	7	
8	7	8	
3	6	10	
6	4	7	
6	4	5	
3	2	7	
2	8	10	
3	6	10	
6	6	7	
4	4	6	
6	12	8	
9	5	9	
3	7	6	
8	6	3	
7	7	11	
8	1	9	
7	3	7	
4	3	13	
4	5	7	
7	9	10	
6	5	5	
7	7	7	
9	4	10	
7	3	14	
5	2	10	
5	3	5	
4	2	11	
4	7	7	
9	6	13	
6	8	11	
3	1	9	
4	5	8	
3	4	6	
5	8	6	
8	11	10	
3	6	11	
7	4	8	
4	3	9	
7	10	10	
7	9	12	
5	5	6	
8	4	10	
7	5	7	
7	0	13	
5	1	8	
2	3	8	
6	10	9	
5	4	10	
3	2	12	
2	5	5	
1	6	17	
1	4	13	
9	4	6	
9	3	7	
5	6	12	
1	10	3	
6	7	10	
5	7	8	
5	2	5	
4	6	4	
4	3	3	
2	3	3	
4	3	11	
1	3	8	
7	9	11	
4	3	11	
5	4	9	
3	10	6	
5	2	10	
2	5	7	
2	9	8	
5	8	9	
2	9	11	
2	4	3	
3	4	8	
4	9	13	
7	7	5	
8	6	7	
2	8	5	
2	9	5	
4	8	5	
4	3	10	
1	8	5	
3	5	10	
5	8	5	
5	6	13	
4	8	7	
4	11	11	
6	10	13	
2	9	6	
8	2	10	
10	5	9	
6	5	8	
5	6	10	
5	4	10	
3	5	13	
5	5	10	
9	3	4	
9	2	2	
7	5	5	
4	3	8	
8	8	7	
2	6	4	
3	3	9	
0	2	9	
11	6	6	
4	4	4	
6	4	6	
8	6	11	
7	7	10	
6	2	8	
5	7	4	
5	4	12	
2	6	11	
5	3	9	
4	8	7	
5	5	8	
2	8	7	
2	5	3	
6	4	8	
3	4	8	
3	5	11	
4	4	12	
4	3	9	
5	6	10	
7	2	9	
4	4	9	
5	4	8	
3	6	6	
6	6	5	
3	7	13	
3	1	6	
7	3	5	
6	12	6	
5	3	10	
8	5	8	
2	4	5	
5	8	12	
7	3	11	
3	5	4	
5	10	13	
9	5	9	
11	3	5	
3	7	8	
1	6	8	
9	7	3	
4	1	5	
3	5	8	
9	3	11	
2	5	14	
7	5	12	
6	7	8	
7	5	8	
8	4	7	
5	6	9	
4	2	6	
4	4	5	
5	6	14	
8	5	9	
3	3	2	
2	12	7	
3	5	9	
7	4	12	
4	6	5	
2	2	11	
4	7	14	
2	4	9	
7	6	2	
3	5	7	
1	4	6	
7	2	8	
6	9	8	
8	1	10	
5	8	12	
2	4	9	
3	4	7	
4	2	7	
7	9	3	
4	5	9	
10	10	6	
3	5	7	
4	5	1	
6	6	7	
4	4	4	
6	3	8	
5	6	6	
7	4	5	
7	6	10	
1	5	9	
9	6	5	
4	5	7	
6	7	7	
8	6	10	
7	5	4	
2	4	2	
5	1	11	
2	2	8	
4	8	13	
4	9	7	
5	7	7	
6	7	8	
2	5	4	
8	6	6	
7	7	7	
4	5	10	
4	6	4	
4	1	12	
2	10	8	
5	6	4	
2	3	7	
3	2	5	
6	9	9	
8	5	4	
7	8	8	
4	3	13	
7	1	8	
6	3	10	
2	4	8	
5	4	8	
6	3	8	
6	8	8	
4	5	6	
5	3	11	
5	5	8	
8	5	8	
5	3	11	
7	7	10	
4	5	9	
7	9	8	
6	3	6	
4	6	9	
8	2	1	
6	5	10	
6	4	9	
1	2	16	
9	7	4	
8	3	12	
4	4	6	
3	5	10	
4	4	6	
8	6	9	
4	11	9	
9	5	8	
7	6	10	
5	4	11	
5	2	3	
6	2	9	
6	6	4	
5	4	5	
5	7	9	
5	6	12	
3	3	4	
6	8	3	
3	1	4	
2	4	8	
3	6	8	
5	6	7	
2	8	8	
9	6	9	
6	4	6	
8	4	8	
4	5	6	
6	6	9	
4	5	8	
7	5	5	
7	6	11	
3	6	8	
5	3	4	
3	3	7	
5	3	7	
6	6	6	
9	3	7	
2	11	8	
7	3	7	
6	5	9	
2	4	8	
5	4	7	
3	8	10	
8	7	10	
7	6	14	
5	7	7	
4	3	2	
4	2	11	
6	2	7	
6	7	5	
3	3	7	
7	6	9	
6	4	5	
5	6	7	
2	8	11	
6	3	9	
2	8	10	
5	6	6	
6	4	10	
5	3	7	
3	5	4	
3	5	9	
4	10	5	
7	7	12	
7	8	12	
7	5	5	
4	1	7	
3	6	11	
6	5	7	
8	7	10	
8	5	12	
3	6	3	
5	5	8	
8	5	8	
3	5	9	
3	2	9	
5	2	7	
3	3	10	
3	10	10	
1	2	10	
6	8	5	
5	5	13	
