#PicoHarp 300  Histogram Data			04/21/2022 02:57:24 PM
#channels per curve
31250
#display curve no.
0	
#memory block no.
0	
#ns/channel
0.0320	
#counts
2	
2	
0	
4	
1	
4	
3	
0	
0	
3	
2	
6	
3	
1	
3	
2	
1	
1	
6	
2	
2	
2	
5	
1	
0	
0	
2	
0	
3	
4	
1	
1	
0	
2	
2	
2	
2	
5	
1	
0	
1	
4	
2	
3	
1	
1	
2	
0	
3	
0	
3	
4	
2	
1	
1	
2	
5	
2	
3	
1	
4	
2	
3	
5	
3	
5	
4	
2	
1	
5	
2	
1	
2	
2	
2	
1	
1	
2	
0	
4	
1	
2	
1	
5	
2	
3	
2	
3	
2	
4	
3	
1	
2	
2	
3	
3	
0	
5	
1	
2	
2	
2	
2	
1	
3	
6	
1	
0	
2	
1	
0	
1	
3	
0	
2	
3	
3	
2	
3	
2	
2	
1	
7	
2	
4	
1	
3	
1	
2	
2	
4	
1	
9	
0	
3	
0	
3	
4	
0	
8	
0	
2	
3	
2	
1	
3	
2	
2	
2	
1	
0	
6	
2	
3	
3	
4	
3	
0	
4	
2	
4	
0	
4	
1	
1	
3	
0	
3	
3	
0	
0	
1	
1	
0	
2	
1	
4	
2	
1	
5	
0	
2	
1	
1	
3	
2	
5	
3	
3	
0	
4	
4	
1	
2	
3	
2	
2	
0	
2	
4	
0	
3	
6	
6	
1	
3	
2	
1	
2	
2	
2	
1	
3	
1	
3	
4	
0	
2	
3	
3	
0	
3	
1	
2	
2	
1	
4	
1	
3	
1	
1	
5	
0	
4	
1	
2	
1	
2	
1	
5	
3	
6	
3	
2	
4	
1	
3	
3	
1	
4	
0	
2	
5	
4	
3	
3	
2	
2	
4	
0	
0	
2	
3	
2	
6	
4	
2	
2	
4	
3	
1	
1	
4	
2	
4	
2	
0	
2	
0	
1	
1	
2	
1	
4	
3	
3	
2	
3	
2	
2	
1	
5	
1	
1	
2	
1	
2	
4	
1	
0	
5	
1	
2	
1	
2	
3	
2	
0	
3	
0	
2	
3	
2	
3	
4	
2	
2	
3	
1	
1	
2	
2	
0	
2	
2	
3	
2	
2	
4	
0	
0	
2	
4	
3	
1	
3	
2	
1	
1	
1	
0	
3	
3	
1	
3	
2	
5	
2	
2	
5	
0	
4	
1	
3	
1	
4	
1	
1	
0	
1	
4	
2	
2	
0	
1	
4	
2	
1	
1	
0	
1	
2	
4	
1	
4	
1	
2	
0	
2	
0	
3	
1	
1	
1	
5	
0	
4	
2	
3	
1	
2	
3	
4	
1	
1	
2	
3	
0	
2	
1	
3	
5	
1	
5	
3	
3	
0	
2	
2	
3	
2	
2	
1	
4	
2	
1	
3	
3	
3	
0	
1	
0	
0	
2	
2	
0	
0	
2	
1	
2	
1	
2	
4	
1	
3	
3	
1	
3	
0	
3	
0	
3	
1	
4	
1	
0	
3	
2	
3	
3	
0	
2	
2	
4	
2	
1	
2	
1	
3	
2	
1	
0	
0	
0	
1	
2	
3	
4	
2	
1	
3	
1	
3	
2	
1	
1	
4	
4	
1	
4	
2	
1	
1	
3	
4	
4	
2	
0	
2	
3	
1	
4	
1	
3	
2	
4	
2	
3	
3	
3	
4	
2	
2	
3	
2	
2	
6	
8	
2	
2	
2	
0	
2	
1	
3	
0	
1	
3	
1	
3	
0	
3	
0	
3	
0	
0	
4	
5	
1	
1	
2	
0	
3	
1	
1	
0	
4	
0	
6	
1	
3	
1	
1	
8	
1	
2	
4	
3	
2	
4	
7	
2	
3	
0	
1	
0	
2	
2	
2	
0	
2	
3	
1	
1	
0	
1	
0	
3	
2	
6	
2	
2	
2	
0	
1	
3	
1	
2	
1	
1	
8	
2	
4	
1	
2	
3	
1	
3	
4	
1	
2	
2	
2	
5	
4	
4	
2	
0	
6	
3	
1	
3	
5	
2	
3	
2	
2	
3	
4	
2	
2	
5	
0	
3	
4	
2	
1	
4	
3	
2	
2	
2	
5	
1	
1	
0	
1	
3	
3	
2	
2	
1	
6	
4	
2	
2	
2	
3	
1	
3	
2	
5	
2	
2	
2	
3	
1	
4	
1	
1	
0	
2	
4	
4	
2	
2	
0	
1	
0	
1	
1	
3	
2	
2	
1	
5	
1	
1	
2	
3	
0	
1	
2	
0	
0	
2	
2	
3	
6	
0	
0	
2	
4	
1	
1	
1	
3	
4	
0	
1	
3	
1	
1	
3	
3	
2	
2	
1	
3	
1	
1	
4	
2	
2	
1	
2	
1	
3	
3	
3	
2	
4	
2	
3	
3	
0	
1	
4	
1	
2	
1	
0	
2	
1	
2	
0	
1	
0	
1	
3	
2	
3	
1	
1	
4	
3	
1	
4	
0	
2	
3	
3	
4	
1	
3	
4	
4	
4	
6	
2	
2	
3	
2	
5	
5	
1	
6	
1	
0	
2	
0	
1	
0	
1	
2	
5	
3	
0	
3	
0	
1	
0	
3	
2	
3	
2	
0	
4	
3	
2	
3	
0	
1	
3	
4	
4	
3	
1	
2	
2	
1	
0	
2	
5	
3	
2	
2	
4	
1	
3	
1	
2	
3	
2	
1	
1	
4	
2	
1	
2	
3	
3	
1	
5	
2	
2	
0	
1	
3	
1	
2	
5	
2	
4	
0	
1	
0	
6	
4	
0	
5	
2	
4	
4	
1	
1	
2	
2	
2	
0	
4	
2	
3	
3	
3	
3	
1	
5	
2	
1	
3	
3	
4	
1	
3	
1	
0	
2	
2	
3	
3	
2	
1	
2	
2	
1	
1	
0	
1	
3	
3	
3	
3	
1	
0	
3	
0	
5	
1	
3	
6	
2	
2	
0	
1	
4	
4	
3	
1	
1	
3	
6	
3	
1	
1	
0	
3	
0	
5	
2	
1	
5	
2	
0	
1	
4	
2	
1	
0	
0	
2	
4	
4	
1	
4	
2	
1	
2	
1	
4	
0	
2	
2	
1	
2	
3	
3	
1	
3	
7	
4	
3	
3	
1	
1	
2	
5	
2	
0	
3	
3	
2	
4	
1	
2	
2	
0	
3	
1	
1	
3	
0	
4	
5	
2	
2	
2	
4	
3	
1	
1	
5	
2	
1	
3	
3	
8	
4	
1	
9	
7	
4	
7	
8	
8	
12	
11	
10	
15	
11	
23	
21	
24	
26	
31	
29	
46	
44	
70	
58	
77	
82	
87	
101	
98	
112	
127	
154	
159	
159	
174	
196	
202	
202	
215	
192	
197	
253	
220	
207	
272	
249	
253	
262	
263	
281	
238	
245	
271	
265	
276	
246	
278	
259	
286	
260	
279	
272	
261	
284	
256	
267	
316	
286	
269	
307	
275	
269	
268	
276	
274	
287	
254	
308	
255	
275	
265	
293	
289	
303	
282	
292	
274	
233	
249	
277	
256	
249	
270	
279	
282	
276	
282	
283	
269	
241	
279	
268	
265	
270	
285	
258	
293	
266	
268	
260	
271	
275	
260	
270	
259	
276	
283	
283	
278	
254	
279	
300	
282	
273	
263	
253	
279	
257	
250	
264	
281	
282	
251	
287	
262	
273	
269	
265	
291	
254	
260	
263	
273	
248	
278	
254	
299	
296	
268	
235	
292	
252	
236	
259	
266	
277	
250	
261	
253	
265	
278	
267	
259	
247	
263	
252	
259	
260	
261	
267	
261	
220	
269	
260	
280	
243	
246	
248	
232	
286	
281	
223	
251	
235	
262	
256	
287	
255	
273	
280	
280	
267	
249	
241	
236	
255	
246	
264	
259	
264	
241	
292	
264	
267	
279	
255	
274	
266	
285	
228	
234	
247	
257	
260	
282	
230	
257	
267	
254	
264	
267	
260	
260	
263	
245	
245	
258	
248	
242	
259	
256	
251	
261	
245	
233	
243	
279	
245	
268	
271	
253	
244	
278	
222	
257	
249	
258	
229	
226	
261	
241	
229	
263	
237	
220	
269	
265	
240	
246	
264	
242	
272	
231	
226	
272	
269	
269	
261	
239	
216	
252	
264	
244	
258	
245	
249	
243	
260	
275	
245	
257	
250	
235	
242	
255	
253	
229	
245	
266	
270	
247	
238	
239	
261	
264	
223	
243	
215	
253	
254	
265	
246	
251	
239	
233	
256	
219	
234	
250	
245	
218	
230	
245	
251	
216	
255	
229	
256	
229	
264	
265	
269	
249	
232	
242	
236	
229	
228	
253	
281	
263	
236	
217	
236	
239	
247	
241	
251	
239	
223	
252	
246	
204	
230	
241	
226	
267	
253	
220	
239	
235	
240	
208	
223	
227	
230	
237	
232	
256	
222	
241	
244	
228	
247	
238	
251	
222	
229	
226	
276	
219	
239	
211	
233	
231	
232	
233	
223	
260	
243	
237	
232	
234	
220	
243	
234	
243	
227	
245	
239	
224	
231	
232	
229	
245	
212	
249	
254	
230	
252	
230	
251	
240	
221	
260	
246	
240	
234	
228	
243	
227	
203	
223	
253	
210	
243	
239	
253	
230	
235	
245	
252	
218	
262	
209	
216	
224	
266	
228	
211	
237	
229	
219	
220	
239	
216	
246	
224	
236	
262	
235	
217	
234	
219	
230	
243	
224	
210	
241	
230	
218	
208	
213	
205	
190	
214	
236	
234	
230	
240	
239	
238	
224	
224	
228	
228	
242	
212	
244	
193	
209	
222	
220	
207	
202	
240	
230	
220	
228	
211	
237	
237	
252	
240	
200	
231	
234	
234	
228	
218	
215	
174	
227	
213	
232	
225	
217	
226	
209	
239	
239	
218	
231	
261	
251	
225	
226	
202	
210	
244	
225	
236	
222	
209	
214	
197	
219	
212	
222	
191	
194	
215	
255	
215	
234	
240	
232	
231	
222	
215	
227	
249	
240	
225	
239	
219	
190	
214	
201	
234	
189	
216	
202	
245	
228	
238	
214	
222	
211	
205	
214	
210	
224	
209	
218	
243	
209	
218	
223	
220	
190	
220	
241	
224	
232	
236	
226	
242	
210	
220	
232	
205	
196	
238	
186	
238	
207	
218	
207	
216	
208	
207	
177	
218	
201	
209	
241	
224	
225	
222	
229	
243	
225	
208	
191	
209	
194	
197	
212	
226	
210	
234	
238	
221	
225	
212	
213	
219	
243	
223	
225	
205	
216	
195	
211	
221	
230	
215	
229	
219	
218	
201	
206	
218	
223	
218	
227	
230	
217	
229	
222	
240	
221	
223	
209	
200	
215	
210	
209	
204	
219	
206	
200	
192	
194	
205	
189	
229	
206	
219	
192	
210	
200	
225	
221	
216	
215	
189	
204	
220	
204	
227	
214	
214	
238	
190	
185	
226	
205	
221	
207	
212	
183	
237	
224	
203	
200	
223	
216	
222	
233	
211	
206	
209	
206	
212	
211	
226	
205	
202	
240	
207	
207	
199	
212	
207	
209	
213	
221	
209	
231	
194	
197	
210	
189	
186	
218	
219	
215	
212	
197	
207	
204	
208	
220	
190	
201	
224	
214	
195	
221	
199	
213	
207	
195	
206	
211	
204	
211	
196	
203	
211	
181	
232	
200	
204	
200	
198	
201	
197	
187	
183	
217	
197	
211	
215	
195	
193	
181	
186	
196	
199	
222	
190	
212	
199	
197	
216	
194	
195	
209	
204	
189	
191	
190	
190	
227	
200	
202	
216	
193	
239	
217	
190	
192	
219	
208	
204	
198	
185	
203	
192	
219	
183	
219	
211	
197	
228	
199	
199	
208	
238	
205	
191	
216	
216	
197	
209	
207	
202	
203	
180	
202	
197	
193	
187	
216	
193	
201	
189	
187	
215	
195	
195	
192	
193	
179	
199	
154	
215	
202	
200	
187	
177	
192	
193	
214	
188	
202	
200	
196	
211	
189	
197	
216	
207	
177	
210	
208	
196	
180	
162	
192	
179	
174	
175	
174	
203	
203	
198	
203	
211	
217	
190	
183	
201	
221	
158	
213	
202	
209	
180	
208	
229	
215	
196	
202	
200	
196	
213	
197	
185	
205	
162	
194	
170	
191	
207	
181	
205	
217	
195	
200	
179	
178	
196	
176	
184	
181	
221	
177	
199	
197	
198	
182	
190	
177	
193	
207	
177	
231	
187	
185	
207	
181	
172	
192	
202	
180	
182	
197	
214	
209	
180	
189	
163	
205	
193	
204	
196	
210	
195	
194	
193	
210	
204	
191	
192	
176	
186	
196	
196	
202	
185	
188	
191	
204	
188	
197	
226	
215	
173	
191	
174	
212	
195	
169	
201	
188	
195	
177	
203	
180	
196	
181	
189	
212	
177	
192	
198	
189	
182	
182	
162	
216	
183	
193	
197	
168	
192	
197	
198	
206	
188	
186	
183	
203	
166	
168	
198	
180	
204	
195	
160	
195	
201	
166	
188	
195	
185	
188	
197	
174	
192	
194	
179	
174	
196	
183	
183	
162	
162	
199	
186	
176	
200	
181	
189	
193	
199	
198	
210	
203	
203	
187	
154	
183	
179	
179	
194	
195	
175	
178	
196	
194	
199	
188	
208	
171	
181	
219	
205	
191	
179	
175	
162	
173	
200	
182	
169	
175	
176	
185	
195	
177	
149	
180	
204	
180	
175	
207	
184	
197	
176	
201	
189	
183	
166	
198	
188	
198	
204	
197	
215	
179	
176	
173	
176	
179	
180	
183	
167	
182	
176	
195	
183	
186	
184	
186	
186	
186	
187	
183	
190	
197	
166	
163	
198	
186	
186	
164	
174	
201	
185	
199	
174	
161	
192	
181	
194	
184	
187	
187	
189	
180	
162	
189	
203	
182	
167	
187	
184	
187	
197	
163	
183	
174	
186	
184	
163	
206	
191	
168	
165	
182	
173	
179	
164	
189	
186	
197	
196	
172	
204	
193	
172	
177	
186	
190	
199	
182	
196	
172	
183	
176	
168	
188	
191	
196	
171	
196	
189	
158	
165	
180	
189	
171	
199	
166	
188	
158	
186	
171	
198	
174	
174	
203	
167	
161	
171	
186	
148	
204	
168	
197	
177	
204	
176	
168	
175	
194	
173	
177	
171	
171	
191	
179	
172	
160	
191	
178	
190	
188	
179	
165	
173	
185	
182	
186	
183	
182	
171	
163	
189	
182	
166	
175	
182	
179	
173	
165	
177	
173	
188	
183	
171	
159	
180	
169	
156	
172	
180	
192	
175	
171	
206	
165	
175	
180	
193	
163	
175	
164	
192	
190	
174	
164	
187	
196	
178	
155	
159	
176	
204	
161	
173	
155	
185	
168	
182	
153	
166	
151	
185	
162	
187	
171	
168	
180	
189	
164	
174	
172	
177	
177	
204	
209	
171	
203	
206	
163	
180	
179	
163	
178	
156	
212	
147	
164	
187	
204	
181	
164	
164	
167	
164	
166	
160	
189	
181	
169	
159	
174	
189	
164	
155	
172	
158	
185	
163	
169	
163	
189	
176	
171	
178	
183	
157	
187	
158	
192	
201	
184	
188	
183	
143	
173	
181	
180	
153	
158	
172	
168	
171	
205	
154	
163	
156	
170	
177	
171	
162	
165	
174	
179	
162	
169	
153	
164	
156	
167	
169	
186	
172	
180	
173	
180	
160	
163	
176	
180	
164	
171	
192	
166	
159	
171	
160	
154	
173	
174	
176	
188	
177	
177	
182	
183	
165	
176	
177	
136	
170	
162	
181	
172	
143	
165	
165	
176	
162	
174	
180	
158	
171	
162	
167	
164	
170	
160	
176	
187	
168	
185	
179	
176	
185	
180	
191	
138	
191	
160	
172	
164	
156	
145	
163	
186	
169	
174	
174	
115	
170	
182	
163	
177	
170	
158	
145	
173	
151	
182	
184	
168	
154	
157	
146	
173	
168	
174	
182	
159	
190	
163	
151	
172	
172	
167	
178	
166	
153	
159	
179	
174	
169	
190	
162	
161	
168	
178	
152	
163	
166	
177	
185	
165	
172	
177	
150	
177	
175	
154	
160	
182	
191	
152	
172	
175	
169	
175	
155	
168	
179	
168	
176	
146	
159	
175	
158	
158	
144	
136	
160	
151	
166	
172	
169	
176	
141	
165	
166	
155	
138	
163	
150	
162	
165	
160	
163	
160	
171	
153	
173	
166	
169	
166	
155	
167	
180	
153	
167	
145	
157	
167	
164	
171	
147	
159	
165	
163	
147	
170	
156	
151	
158	
187	
165	
161	
147	
130	
173	
171	
158	
175	
156	
148	
166	
161	
162	
156	
156	
167	
143	
169	
149	
180	
177	
173	
167	
159	
183	
155	
143	
172	
153	
144	
179	
171	
148	
155	
161	
157	
148	
151	
175	
155	
141	
142	
162	
159	
160	
155	
158	
155	
180	
162	
155	
167	
167	
149	
160	
138	
164	
145	
166	
146	
142	
179	
156	
161	
159	
149	
158	
145	
147	
189	
180	
147	
156	
149	
159	
146	
151	
161	
155	
159	
135	
172	
151	
165	
161	
153	
150	
135	
162	
154	
158	
150	
148	
157	
143	
136	
139	
140	
159	
164	
151	
153	
151	
155	
157	
158	
152	
152	
147	
160	
159	
147	
158	
162	
155	
172	
145	
159	
160	
150	
155	
154	
155	
144	
157	
134	
168	
145	
152	
136	
174	
136	
172	
156	
147	
156	
166	
148	
157	
145	
166	
147	
139	
146	
160	
172	
144	
166	
161	
136	
161	
165	
206	
160	
179	
144	
146	
148	
171	
142	
158	
167	
137	
136	
158	
184	
153	
169	
154	
180	
174	
142	
171	
174	
135	
162	
143	
168	
150	
162	
149	
153	
164	
168	
162	
142	
153	
151	
141	
149	
158	
147	
155	
154	
156	
139	
172	
145	
150	
164	
152	
148	
151	
144	
143	
151	
167	
146	
164	
181	
148	
169	
177	
168	
143	
157	
145	
162	
161	
163	
134	
134	
147	
135	
141	
133	
141	
169	
133	
165	
139	
138	
153	
161	
149	
130	
140	
142	
163	
173	
154	
168	
150	
168	
145	
168	
143	
155	
129	
143	
132	
138	
174	
158	
135	
135	
144	
139	
136	
156	
124	
138	
150	
159	
152	
136	
153	
176	
138	
144	
153	
160	
175	
158	
139	
159	
152	
147	
172	
149	
142	
138	
143	
163	
159	
131	
162	
166	
157	
163	
125	
167	
149	
139	
142	
153	
149	
160	
156	
151	
150	
139	
162	
142	
156	
161	
141	
132	
152	
142	
146	
151	
173	
139	
153	
156	
134	
138	
158	
153	
154	
126	
138	
143	
135	
150	
154	
143	
134	
167	
155	
149	
168	
150	
140	
140	
152	
150	
141	
164	
145	
121	
156	
140	
144	
150	
133	
131	
139	
169	
153	
168	
166	
132	
143	
137	
137	
146	
159	
156	
149	
131	
138	
170	
130	
162	
131	
140	
144	
155	
145	
152	
163	
167	
132	
162	
143	
155	
147	
126	
140	
150	
161	
140	
147	
159	
157	
147	
133	
134	
156	
129	
167	
133	
130	
167	
158	
137	
153	
166	
146	
148	
150	
142	
137	
157	
150	
125	
143	
146	
125	
139	
115	
128	
130	
143	
136	
164	
150	
150	
137	
127	
142	
137	
131	
148	
137	
139	
142	
153	
145	
146	
164	
144	
129	
130	
147	
132	
150	
132	
156	
130	
125	
133	
140	
149	
161	
135	
134	
179	
133	
160	
159	
132	
126	
140	
141	
136	
116	
126	
144	
127	
147	
139	
135	
154	
154	
134	
126	
131	
161	
139	
134	
142	
135	
133	
148	
135	
137	
145	
140	
161	
150	
136	
152	
143	
137	
132	
134	
152	
155	
153	
153	
143	
146	
142	
137	
134	
131	
138	
139	
170	
150	
120	
134	
150	
153	
146	
142	
142	
128	
171	
127	
125	
117	
118	
129	
134	
151	
134	
131	
159	
138	
135	
158	
135	
135	
140	
147	
125	
150	
144	
142	
133	
138	
153	
167	
155	
139	
142	
128	
133	
141	
136	
166	
151	
127	
148	
144	
157	
168	
156	
132	
135	
149	
120	
141	
135	
130	
123	
129	
115	
147	
134	
142	
120	
139	
148	
139	
129	
145	
139	
146	
140	
141	
157	
152	
121	
137	
133	
153	
125	
131	
142	
159	
147	
128	
134	
146	
126	
150	
126	
147	
125	
144	
150	
144	
124	
139	
150	
141	
134	
139	
128	
120	
135	
122	
127	
126	
117	
132	
143	
134	
139	
152	
152	
132	
117	
138	
125	
127	
151	
143	
130	
119	
141	
136	
118	
138	
141	
138	
136	
145	
149	
158	
128	
144	
136	
128	
159	
137	
119	
121	
128	
153	
148	
106	
131	
136	
124	
124	
135	
138	
147	
116	
142	
138	
140	
127	
124	
125	
138	
128	
130	
134	
128	
124	
116	
126	
127	
140	
148	
128	
150	
123	
128	
126	
143	
129	
140	
152	
143	
144	
135	
134	
116	
135	
143	
139	
138	
135	
138	
150	
129	
136	
123	
134	
146	
140	
135	
127	
132	
144	
130	
139	
123	
147	
135	
140	
135	
125	
143	
134	
118	
122	
140	
113	
136	
145	
149	
162	
133	
122	
134	
154	
123	
140	
120	
132	
125	
130	
144	
137	
145	
110	
143	
137	
124	
150	
123	
148	
148	
133	
143	
166	
117	
147	
125	
131	
129	
143	
134	
141	
130	
120	
110	
139	
143	
121	
155	
147	
125	
137	
151	
149	
137	
120	
131	
146	
116	
130	
139	
128	
128	
171	
144	
138	
129	
120	
141	
130	
130	
146	
127	
134	
144	
131	
106	
129	
135	
130	
114	
141	
140	
159	
131	
139	
135	
130	
126	
143	
119	
151	
115	
121	
125	
138	
129	
135	
124	
143	
141	
133	
132	
125	
137	
123	
110	
140	
129	
147	
127	
131	
106	
127	
128	
125	
120	
117	
144	
148	
117	
132	
135	
149	
106	
126	
145	
137	
136	
122	
123	
136	
138	
122	
120	
118	
139	
120	
132	
117	
141	
138	
138	
137	
158	
122	
119	
117	
130	
120	
139	
141	
133	
130	
129	
126	
138	
129	
121	
137	
136	
137	
141	
100	
133	
129	
127	
142	
121	
125	
135	
134	
132	
111	
123	
127	
125	
136	
139	
109	
142	
142	
115	
125	
136	
125	
147	
127	
136	
120	
126	
129	
119	
111	
135	
125	
132	
132	
137	
101	
134	
135	
112	
122	
123	
140	
128	
127	
120	
109	
132	
115	
119	
124	
126	
128	
130	
122	
132	
129	
126	
112	
118	
126	
122	
116	
134	
138	
132	
131	
131	
143	
130	
105	
135	
109	
121	
114	
142	
138	
127	
114	
117	
127	
106	
145	
149	
116	
117	
124	
130	
157	
136	
112	
135	
123	
127	
117	
117	
108	
125	
113	
118	
122	
112	
128	
143	
120	
119	
107	
106	
123	
110	
120	
116	
128	
105	
116	
119	
125	
130	
114	
121	
110	
141	
104	
123	
132	
128	
114	
134	
129	
107	
113	
120	
124	
105	
126	
129	
114	
124	
114	
136	
122	
136	
113	
134	
112	
111	
129	
126	
116	
135	
114	
133	
139	
155	
109	
132	
155	
145	
150	
108	
107	
125	
121	
137	
125	
114	
110	
121	
130	
137	
110	
136	
132	
118	
132	
113	
127	
144	
130	
112	
115	
128	
108	
132	
122	
112	
133	
124	
126	
124	
118	
139	
119	
107	
113	
110	
123	
107	
130	
143	
123	
137	
114	
110	
101	
127	
107	
136	
146	
108	
137	
92	
121	
120	
140	
119	
109	
107	
114	
128	
107	
113	
107	
125	
117	
125	
111	
111	
139	
133	
127	
120	
122	
117	
116	
106	
132	
126	
124	
102	
125	
110	
132	
146	
100	
130	
119	
113	
114	
103	
129	
134	
119	
115	
116	
140	
130	
111	
117	
123	
117	
137	
125	
135	
114	
134	
115	
105	
119	
114	
130	
136	
117	
105	
119	
126	
92	
127	
123	
123	
131	
115	
98	
95	
129	
102	
121	
127	
118	
122	
119	
113	
109	
120	
115	
112	
123	
120	
116	
119	
109	
120	
115	
123	
128	
122	
118	
118	
108	
111	
116	
114	
118	
134	
128	
128	
131	
111	
135	
101	
120	
112	
125	
118	
115	
124	
98	
91	
122	
128	
112	
104	
116	
125	
118	
111	
126	
117	
119	
105	
111	
136	
113	
114	
112	
122	
121	
130	
130	
122	
110	
108	
115	
120	
112	
113	
114	
123	
112	
121	
120	
103	
113	
108	
114	
146	
126	
99	
105	
100	
115	
106	
117	
110	
119	
106	
117	
116	
120	
113	
121	
112	
95	
111	
120	
124	
115	
135	
121	
102	
126	
112	
111	
127	
118	
106	
112	
99	
112	
87	
101	
121	
100	
127	
126	
105	
107	
124	
82	
123	
116	
95	
105	
110	
124	
114	
110	
112	
107	
117	
105	
106	
111	
109	
108	
124	
125	
102	
93	
131	
108	
114	
137	
110	
103	
97	
107	
121	
105	
105	
116	
113	
108	
119	
123	
114	
117	
112	
117	
113	
107	
124	
101	
105	
109	
94	
98	
121	
125	
120	
112	
96	
113	
117	
102	
105	
130	
98	
111	
129	
108	
109	
125	
118	
109	
95	
115	
100	
121	
114	
100	
106	
121	
126	
109	
130	
103	
101	
128	
110	
106	
113	
111	
112	
123	
114	
103	
105	
117	
112	
91	
121	
90	
109	
113	
105	
117	
118	
116	
121	
127	
93	
114	
92	
109	
115	
109	
115	
114	
95	
117	
103	
113	
117	
129	
105	
116	
111	
111	
125	
105	
119	
111	
115	
94	
103	
113	
143	
109	
118	
105	
109	
120	
104	
109	
99	
117	
110	
104	
132	
106	
106	
99	
109	
99	
116	
87	
131	
132	
113	
121	
105	
125	
106	
118	
120	
116	
126	
104	
109	
110	
88	
95	
114	
96	
117	
96	
118	
112	
131	
135	
97	
126	
116	
119	
113	
112	
103	
109	
103	
113	
89	
104	
113	
115	
105	
112	
106	
119	
102	
104	
139	
114	
104	
127	
106	
108	
114	
96	
102	
108	
111	
109	
98	
131	
102	
108	
101	
98	
98	
100	
94	
104	
112	
111	
121	
97	
104	
112	
108	
112	
102	
101	
103	
109	
116	
102	
117	
121	
114	
129	
119	
106	
111	
104	
110	
116	
119	
99	
113	
125	
104	
126	
109	
117	
95	
118	
96	
116	
111	
103	
100	
110	
104	
115	
104	
112	
113	
95	
81	
104	
115	
105	
124	
119	
92	
112	
113	
93	
115	
112	
105	
101	
93	
119	
102	
115	
105	
103	
104	
101	
119	
108	
103	
94	
99	
104	
101	
97	
94	
104	
97	
112	
113	
110	
121	
121	
105	
108	
108	
122	
132	
99	
114	
90	
100	
102	
93	
121	
127	
113	
96	
102	
119	
117	
117	
120	
116	
100	
122	
111	
110	
99	
90	
94	
103	
109	
96	
103	
120	
109	
103	
121	
107	
105	
96	
111	
108	
109	
109	
90	
120	
122	
89	
101	
109	
124	
91	
97	
102	
127	
98	
109	
77	
113	
118	
95	
95	
102	
100	
103	
80	
95	
101	
122	
110	
112	
95	
104	
114	
87	
107	
109	
107	
93	
102	
102	
105	
101	
101	
103	
113	
113	
104	
104	
108	
115	
101	
103	
107	
106	
99	
101	
108	
119	
110	
119	
114	
107	
102	
128	
112	
94	
109	
98	
98	
95	
97	
92	
122	
104	
98	
110	
99	
100	
94	
87	
102	
116	
113	
100	
82	
113	
97	
115	
102	
108	
96	
119	
110	
111	
98	
96	
99	
108	
117	
108	
121	
104	
114	
98	
107	
108	
110	
88	
100	
107	
89	
102	
99	
108	
100	
105	
100	
108	
103	
121	
98	
91	
102	
104	
109	
117	
118	
92	
101	
109	
103	
103	
109	
115	
111	
97	
106	
103	
112	
107	
116	
115	
105	
115	
102	
91	
112	
137	
100	
109	
100	
98	
113	
105	
104	
100	
97	
91	
103	
92	
99	
103	
93	
106	
103	
124	
110	
105	
93	
95	
88	
101	
122	
96	
113	
103	
90	
98	
112	
116	
116	
92	
106	
100	
92	
93	
104	
104	
112	
106	
108	
96	
102	
111	
109	
101	
93	
102	
102	
81	
123	
83	
83	
90	
114	
110	
110	
102	
103	
93	
102	
94	
83	
116	
95	
86	
116	
111	
113	
117	
111	
104	
95	
112	
99	
115	
93	
109	
101	
97	
89	
115	
87	
112	
125	
116	
90	
94	
110	
100	
104	
88	
104	
93	
120	
99	
88	
95	
114	
99	
108	
103	
99	
99	
102	
82	
105	
115	
83	
101	
110	
96	
90	
99	
103	
97	
101	
92	
99	
104	
93	
106	
104	
107	
109	
107	
93	
94	
98	
97	
108	
103	
83	
86	
84	
96	
98	
113	
95	
100	
109	
109	
97	
111	
111	
110	
108	
106	
108	
85	
84	
101	
111	
100	
98	
105	
85	
103	
90	
103	
84	
104	
100	
96	
102	
106	
103	
104	
96	
103	
94	
100	
80	
78	
116	
93	
89	
81	
106	
105	
111	
90	
90	
100	
95	
101	
102	
90	
95	
91	
102	
106	
72	
109	
97	
104	
98	
89	
102	
101	
109	
105	
110	
99	
97	
109	
98	
105	
87	
98	
100	
114	
105	
77	
95	
103	
87	
101	
108	
94	
97	
91	
89	
101	
93	
93	
98	
99	
119	
105	
92	
112	
112	
98	
85	
112	
99	
92	
96	
98	
106	
104	
123	
81	
99	
102	
98	
77	
91	
97	
94	
109	
92	
97	
94	
94	
89	
104	
98	
97	
97	
100	
96	
114	
83	
95	
85	
90	
96	
80	
101	
88	
102	
80	
95	
104	
115	
95	
107	
99	
118	
93	
94	
114	
102	
118	
89	
85	
103	
87	
91	
95	
98	
106	
102	
95	
88	
108	
101	
90	
83	
98	
92	
92	
101	
94	
90	
102	
96	
99	
111	
96	
96	
97	
105	
86	
119	
89	
107	
104	
117	
102	
101	
103	
104	
98	
95	
97	
104	
83	
87	
129	
80	
91	
90	
100	
103	
85	
86	
125	
100	
107	
91	
100	
86	
103	
88	
87	
95	
109	
104	
103	
82	
92	
95	
96	
107	
104	
96	
86	
74	
100	
103	
100	
74	
98	
93	
121	
106	
109	
90	
95	
97	
85	
101	
81	
113	
102	
83	
107	
92	
81	
98	
96	
82	
109	
93	
99	
75	
92	
103	
69	
96	
96	
82	
94	
96	
96	
102	
97	
100	
101	
91	
90	
99	
92	
92	
78	
88	
84	
81	
91	
80	
81	
105	
105	
102	
97	
79	
98	
93	
108	
87	
79	
92	
83	
76	
115	
83	
82	
91	
93	
113	
112	
97	
106	
104	
92	
101	
102	
101	
81	
99	
84	
85	
86	
99	
100	
94	
89	
101	
106	
61	
82	
94	
84	
98	
96	
80	
87	
95	
114	
75	
91	
106	
84	
87	
89	
93	
95	
100	
98	
85	
101	
67	
90	
104	
82	
105	
97	
85	
101	
88	
95	
94	
95	
94	
97	
84	
86	
85	
94	
95	
81	
97	
89	
95	
112	
95	
94	
85	
110	
93	
84	
87	
117	
93	
105	
95	
96	
94	
81	
107	
100	
91	
100	
90	
95	
90	
87	
117	
82	
99	
92	
101	
91	
84	
91	
86	
86	
93	
103	
84	
95	
91	
83	
94	
81	
100	
82	
104	
82	
78	
95	
96	
96	
73	
88	
61	
85	
103	
83	
82	
98	
111	
91	
84	
91	
110	
93	
94	
89	
76	
99	
94	
87	
88	
98	
102	
82	
87	
81	
90	
80	
87	
102	
93	
95	
94	
99	
95	
92	
93	
100	
102	
93	
94	
91	
74	
93	
94	
91	
80	
94	
87	
82	
90	
90	
93	
75	
89	
110	
101	
78	
75	
87	
93	
77	
94	
79	
68	
92	
87	
91	
94	
88	
93	
87	
77	
84	
96	
100	
83	
88	
101	
95	
106	
98	
90	
81	
88	
84	
84	
73	
83	
93	
89	
96	
94	
92	
78	
84	
118	
106	
88	
84	
82	
94	
79	
100	
89	
88	
99	
87	
95	
106	
90	
83	
92	
91	
82	
90	
106	
92	
107	
92	
85	
107	
72	
87	
72	
77	
104	
98	
105	
95	
88	
77	
80	
102	
106	
85	
95	
80	
104	
89	
86	
92	
87	
65	
85	
73	
76	
78	
89	
95	
92	
87	
97	
93	
93	
96	
77	
79	
71	
82	
89	
84	
71	
104	
76	
87	
80	
92	
83	
91	
91	
100	
86	
87	
103	
83	
84	
77	
95	
96	
80	
97	
91	
90	
98	
91	
95	
86	
68	
88	
97	
100	
92	
82	
99	
101	
85	
104	
79	
88	
104	
88	
86	
92	
86	
96	
74	
78	
78	
75	
81	
92	
101	
78	
88	
90	
100	
93	
84	
82	
66	
92	
97	
86	
82	
94	
99	
85	
82	
97	
102	
70	
86	
87	
80	
75	
86	
80	
84	
88	
90	
84	
90	
84	
74	
98	
97	
88	
107	
89	
97	
106	
84	
92	
82	
97	
78	
70	
77	
105	
89	
100	
94	
100	
90	
70	
101	
84	
82	
96	
92	
98	
89	
84	
87	
78	
95	
84	
89	
81	
90	
85	
86	
85	
67	
72	
76	
84	
83	
98	
75	
79	
80	
88	
82	
74	
80	
97	
83	
81	
91	
83	
80	
83	
70	
70	
78	
92	
81	
80	
93	
83	
80	
81	
92	
79	
93	
93	
85	
87	
83	
102	
76	
67	
84	
93	
81	
85	
92	
95	
86	
96	
71	
83	
85	
66	
78	
81	
79	
91	
84	
89	
97	
84	
96	
87	
75	
106	
76	
75	
99	
89	
75	
80	
77	
100	
84	
68	
83	
92	
92	
79	
99	
87	
66	
98	
93	
87	
86	
89	
89	
93	
91	
87	
83	
66	
80	
80	
71	
96	
72	
73	
81	
81	
71	
80	
76	
77	
76	
92	
77	
101	
85	
78	
88	
87	
71	
90	
65	
89	
93	
86	
84	
94	
84	
95	
94	
91	
84	
82	
67	
70	
74	
95	
78	
71	
83	
90	
81	
88	
77	
76	
93	
74	
86	
66	
77	
80	
80	
91	
79	
86	
95	
82	
86	
93	
81	
85	
85	
82	
92	
79	
83	
85	
77	
77	
65	
100	
98	
101	
96	
85	
83	
89	
86	
94	
64	
91	
87	
77	
93	
75	
93	
82	
83	
96	
68	
76	
70	
81	
97	
68	
93	
76	
75	
80	
64	
86	
75	
72	
98	
74	
85	
74	
90	
76	
72	
78	
85	
106	
72	
82	
69	
87	
88	
90	
85	
65	
78	
91	
86	
66	
84	
86	
81	
79	
94	
91	
72	
85	
85	
67	
68	
72	
75	
66	
75	
63	
73	
95	
82	
76	
86	
88	
65	
74	
67	
86	
76	
72	
74	
85	
82	
80	
79	
68	
73	
99	
96	
89	
92	
76	
78	
81	
69	
81	
63	
73	
92	
61	
79	
94	
83	
87	
95	
88	
96	
67	
90	
84	
78	
81	
105	
73	
84	
88	
85	
74	
66	
69	
73	
82	
81	
79	
93	
79	
67	
90	
73	
71	
73	
79	
89	
72	
70	
84	
90	
80	
86	
75	
78	
77	
83	
87	
85	
83	
77	
87	
73	
85	
89	
73	
91	
71	
77	
79	
86	
83	
86	
86	
100	
76	
87	
81	
67	
90	
70	
88	
69	
69	
78	
74	
79	
91	
92	
56	
62	
73	
68	
81	
62	
72	
85	
82	
82	
69	
93	
94	
89	
62	
81	
72	
74	
79	
75	
78	
72	
88	
88	
74	
75	
103	
101	
81	
87	
84	
86	
83	
77	
70	
83	
92	
82	
87	
71	
79	
77	
71	
79	
86	
82	
81	
66	
85	
87	
80	
76	
83	
59	
77	
71	
62	
79	
84	
100	
71	
70	
75	
77	
74	
73	
83	
79	
75	
95	
78	
82	
72	
91	
77	
71	
70	
74	
89	
62	
70	
81	
87	
73	
88	
77	
73	
76	
70	
68	
85	
78	
111	
81	
80	
87	
68	
92	
69	
65	
77	
80	
86	
81	
84	
59	
67	
81	
94	
94	
78	
97	
71	
79	
75	
72	
79	
69	
76	
62	
74	
77	
82	
75	
69	
69	
70	
68	
75	
83	
78	
84	
66	
56	
77	
70	
79	
83	
85	
89	
97	
70	
87	
84	
74	
72	
68	
74	
75	
85	
63	
63	
73	
81	
86	
77	
60	
97	
80	
86	
64	
89	
99	
58	
82	
68	
72	
73	
81	
71	
82	
77	
71	
67	
93	
95	
76	
70	
70	
77	
70	
72	
54	
82	
75	
76	
68	
74	
93	
67	
89	
75	
96	
75	
73	
70	
71	
86	
75	
61	
94	
74	
65	
80	
62	
79	
74	
76	
66	
78	
81	
63	
84	
88	
65	
83	
79	
94	
81	
73	
92	
89	
73	
62	
73	
75	
83	
91	
80	
68	
71	
72	
83	
61	
77	
85	
83	
69	
65	
70	
76	
89	
74	
85	
57	
70	
72	
72	
59	
75	
73	
81	
63	
83	
66	
63	
98	
78	
76	
57	
58	
72	
67	
73	
90	
76	
84	
61	
66	
64	
67	
90	
62	
75	
71	
84	
72	
73	
86	
73	
87	
73	
73	
81	
74	
76	
73	
83	
68	
84	
65	
74	
92	
67	
96	
85	
74	
74	
79	
91	
67	
92	
62	
70	
89	
86	
70	
67	
65	
75	
67	
64	
70	
92	
72	
82	
72	
72	
82	
59	
93	
68	
70	
68	
78	
61	
72	
76	
65	
85	
79	
86	
68	
70	
72	
66	
81	
87	
73	
66	
67	
59	
76	
86	
74	
70	
78	
72	
60	
83	
81	
87	
83	
75	
76	
75	
77	
80	
75	
58	
81	
62	
75	
90	
67	
69	
77	
70	
62	
78	
72	
63	
75	
89	
83	
65	
75	
68	
69	
69	
73	
78	
73	
68	
78	
63	
57	
70	
77	
61	
78	
75	
67	
71	
69	
71	
74	
62	
73	
86	
59	
83	
72	
73	
51	
71	
66	
81	
73	
77	
71	
78	
85	
84	
58	
81	
69	
64	
74	
67	
71	
89	
81	
69	
72	
70	
69	
75	
78	
92	
76	
67	
65	
69	
67	
83	
80	
53	
86	
61	
84	
86	
64	
61	
70	
66	
72	
55	
79	
78	
87	
62	
64	
69	
71	
62	
75	
66	
74	
83	
65	
63	
84	
74	
67	
77	
68	
90	
55	
71	
57	
62	
74	
80	
66	
73	
72	
75	
75	
53	
67	
87	
62	
77	
72	
94	
55	
74	
78	
75	
68	
71	
64	
70	
72	
83	
56	
66	
77	
80	
77	
90	
69	
61	
78	
70	
83	
80	
63	
64	
65	
60	
73	
84	
70	
60	
75	
58	
78	
84	
62	
78	
68	
67	
83	
80	
73	
71	
77	
72	
76	
76	
59	
79	
69	
78	
75	
56	
70	
76	
56	
76	
72	
73	
70	
77	
70	
82	
78	
72	
65	
66	
68	
62	
94	
61	
88	
67	
71	
70	
79	
59	
74	
69	
75	
53	
80	
65	
68	
59	
70	
63	
89	
75	
75	
62	
88	
69	
74	
83	
64	
69	
57	
75	
72	
69	
69	
63	
49	
70	
65	
65	
57	
77	
71	
79	
77	
76	
57	
70	
81	
69	
64	
66	
91	
64	
84	
71	
59	
72	
65	
82	
72	
79	
81	
57	
65	
58	
62	
64	
65	
75	
61	
56	
75	
58	
85	
65	
70	
66	
78	
71	
78	
80	
66	
57	
58	
53	
56	
69	
78	
64	
80	
68	
64	
66	
63	
80	
56	
74	
84	
58	
67	
61	
63	
77	
68	
71	
53	
62	
66	
76	
77	
69	
79	
59	
67	
67	
72	
73	
89	
71	
78	
75	
56	
66	
83	
66	
58	
68	
54	
63	
65	
64	
70	
66	
68	
69	
78	
76	
68	
68	
53	
66	
54	
60	
56	
59	
74	
70	
62	
67	
50	
78	
71	
68	
70	
53	
68	
65	
71	
63	
74	
70	
78	
77	
82	
60	
60	
78	
76	
76	
67	
73	
56	
68	
76	
62	
61	
70	
61	
87	
64	
67	
79	
61	
61	
50	
65	
84	
66	
64	
65	
59	
75	
60	
50	
73	
54	
79	
64	
67	
59	
65	
64	
80	
66	
67	
70	
66	
79	
66	
72	
64	
77	
76	
69	
62	
82	
65	
59	
76	
66	
78	
73	
56	
79	
63	
49	
60	
73	
68	
74	
73	
73	
79	
73	
77	
72	
64	
67	
73	
69	
66	
61	
67	
63	
77	
67	
64	
60	
60	
44	
55	
62	
63	
67	
69	
37	
49	
56	
62	
55	
64	
76	
71	
67	
68	
70	
71	
78	
62	
67	
78	
75	
67	
75	
67	
62	
60	
85	
66	
78	
69	
75	
72	
63	
85	
71	
67	
62	
84	
63	
72	
68	
65	
57	
67	
66	
80	
66	
76	
62	
81	
77	
59	
65	
61	
57	
64	
62	
59	
61	
74	
64	
73	
73	
74	
77	
52	
68	
70	
62	
72	
61	
72	
65	
50	
71	
72	
69	
66	
71	
61	
77	
83	
64	
57	
66	
68	
66	
61	
66	
81	
65	
73	
61	
76	
65	
71	
63	
82	
77	
63	
58	
60	
66	
74	
72	
61	
59	
66	
70	
68	
63	
71	
70	
72	
73	
57	
56	
72	
58	
71	
53	
60	
57	
76	
70	
60	
70	
68	
60	
64	
56	
60	
63	
53	
65	
64	
69	
68	
66	
71	
72	
61	
55	
62	
62	
69	
54	
65	
64	
58	
71	
71	
64	
75	
71	
71	
51	
69	
57	
56	
55	
72	
64	
57	
63	
56	
63	
60	
77	
58	
78	
73	
61	
77	
63	
61	
61	
75	
72	
41	
70	
60	
58	
70	
62	
55	
56	
64	
61	
64	
78	
74	
58	
54	
85	
63	
62	
60	
55	
64	
61	
61	
62	
60	
68	
62	
59	
63	
54	
63	
75	
55	
59	
62	
69	
57	
71	
55	
63	
60	
68	
64	
83	
78	
59	
76	
57	
58	
50	
61	
60	
56	
69	
60	
68	
52	
69	
53	
68	
64	
86	
70	
61	
55	
72	
55	
61	
60	
77	
78	
47	
58	
56	
54	
59	
67	
60	
61	
70	
58	
67	
74	
68	
78	
65	
73	
68	
60	
60	
66	
73	
83	
70	
59	
67	
67	
81	
72	
67	
61	
51	
71	
63	
59	
72	
70	
66	
59	
57	
68	
72	
72	
69	
65	
71	
68	
57	
54	
64	
51	
51	
49	
67	
70	
77	
64	
53	
54	
57	
48	
71	
55	
68	
65	
58	
64	
67	
64	
67	
67	
66	
56	
66	
50	
71	
55	
55	
64	
56	
63	
69	
59	
62	
63	
73	
65	
58	
50	
57	
57	
68	
73	
62	
62	
52	
59	
57	
52	
69	
58	
75	
53	
79	
65	
56	
63	
75	
65	
59	
53	
70	
70	
68	
70	
70	
53	
64	
61	
92	
61	
72	
58	
53	
58	
57	
58	
50	
70	
71	
60	
69	
73	
75	
63	
65	
77	
50	
53	
56	
71	
61	
59	
69	
68	
64	
62	
72	
68	
62	
64	
62	
72	
55	
53	
46	
61	
65	
62	
76	
48	
62	
60	
58	
66	
59	
71	
57	
67	
51	
57	
50	
53	
69	
34	
79	
50	
63	
63	
72	
64	
79	
56	
51	
57	
64	
67	
65	
57	
72	
58	
62	
53	
66	
68	
49	
72	
55	
73	
61	
58	
45	
77	
67	
62	
51	
48	
73	
60	
50	
87	
68	
60	
55	
74	
53	
70	
62	
69	
59	
66	
58	
57	
56	
49	
81	
58	
50	
54	
57	
53	
63	
66	
51	
63	
46	
64	
61	
52	
66	
58	
53	
55	
55	
58	
61	
65	
60	
57	
70	
57	
56	
56	
82	
49	
44	
50	
68	
52	
66	
46	
69	
51	
65	
69	
57	
53	
53	
63	
69	
61	
63	
57	
57	
48	
60	
59	
58	
67	
72	
63	
63	
53	
66	
60	
52	
63	
54	
53	
71	
63	
74	
60	
52	
72	
45	
52	
57	
67	
69	
63	
56	
48	
51	
58	
64	
68	
54	
68	
68	
63	
58	
52	
67	
76	
58	
61	
59	
64	
50	
53	
48	
61	
40	
78	
54	
64	
57	
64	
54	
67	
52	
63	
58	
64	
64	
66	
61	
66	
50	
62	
74	
56	
49	
59	
63	
59	
62	
57	
52	
53	
56	
63	
69	
71	
63	
60	
52	
