#PicoHarp 300  Histogram Data			04/21/2022 03:10:50 PM
#channels per curve
31250
#display curve no.
0	
#memory block no.
0	
#ns/channel
0.0320	
#counts
0	
0	
0	
0	
0	
0	
0	
0	
0	
0	
0	
0	
0	
0	
0	
0	
1	
0	
0	
0	
1	
0	
0	
1	
0	
0	
0	
0	
0	
0	
1	
0	
0	
0	
2	
0	
0	
0	
0	
0	
0	
0	
0	
0	
0	
0	
0	
0	
0	
0	
1	
0	
1	
0	
1	
0	
0	
2	
0	
0	
0	
0	
0	
1	
1	
1	
1	
0	
0	
2	
1	
0	
1	
0	
0	
0	
2	
1	
0	
0	
1	
1	
0	
1	
0	
1	
1	
1	
2	
0	
0	
0	
0	
0	
0	
0	
1	
2	
0	
0	
0	
0	
0	
0	
2	
1	
0	
1	
0	
0	
1	
1	
1	
0	
0	
2	
1	
0	
0	
0	
0	
0	
0	
0	
1	
1	
1	
0	
0	
0	
0	
0	
0	
0	
0	
0	
0	
0	
0	
0	
0	
1	
0	
1	
1	
0	
0	
1	
1	
0	
1	
0	
1	
0	
0	
0	
0	
0	
0	
0	
0	
1	
0	
0	
0	
0	
0	
1	
0	
0	
1	
0	
1	
0	
0	
0	
1	
0	
0	
1	
0	
1	
0	
0	
1	
0	
0	
0	
1	
1	
0	
0	
0	
1	
0	
3	
0	
1	
0	
3	
0	
0	
1	
0	
0	
0	
1	
1	
0	
0	
0	
0	
0	
0	
0	
0	
0	
1	
0	
1	
0	
0	
0	
0	
0	
1	
0	
1	
0	
0	
0	
0	
0	
0	
0	
0	
0	
0	
0	
0	
0	
0	
0	
0	
1	
0	
0	
0	
0	
1	
1	
1	
1	
0	
1	
1	
0	
1	
2	
1	
0	
0	
1	
2	
0	
0	
0	
0	
0	
1	
0	
0	
0	
2	
1	
0	
1	
0	
0	
0	
1	
2	
1	
0	
1	
0	
0	
0	
0	
0	
0	
1	
1	
0	
0	
0	
0	
1	
0	
1	
0	
1	
2	
0	
0	
0	
1	
0	
0	
1	
0	
0	
0	
1	
0	
2	
0	
0	
0	
0	
0	
1	
0	
1	
2	
0	
0	
0	
0	
1	
1	
0	
1	
1	
0	
0	
0	
0	
0	
0	
2	
0	
0	
1	
0	
0	
0	
0	
0	
0	
1	
0	
0	
0	
0	
0	
0	
0	
0	
2	
0	
0	
1	
0	
0	
0	
0	
1	
0	
1	
0	
0	
0	
0	
0	
1	
0	
1	
1	
0	
0	
2	
1	
0	
0	
0	
1	
0	
1	
1	
0	
0	
1	
0	
2	
0	
0	
0	
0	
0	
0	
0	
0	
1	
2	
0	
1	
1	
1	
1	
1	
0	
0	
0	
0	
2	
0	
0	
1	
2	
1	
2	
0	
1	
1	
0	
0	
0	
1	
0	
0	
1	
1	
0	
0	
1	
1	
1	
0	
1	
0	
2	
1	
0	
0	
0	
1	
0	
2	
2	
0	
0	
0	
2	
2	
3	
1	
1	
1	
2	
1	
1	
1	
0	
0	
1	
0	
0	
1	
2	
0	
1	
0	
0	
2	
0	
0	
0	
0	
0	
0	
2	
2	
0	
0	
0	
0	
1	
0	
1	
0	
1	
0	
2	
1	
0	
0	
0	
0	
0	
0	
0	
1	
0	
1	
1	
0	
0	
0	
0	
1	
0	
0	
0	
1	
0	
0	
1	
0	
0	
1	
0	
1	
0	
0	
0	
0	
0	
0	
0	
0	
0	
1	
0	
0	
1	
1	
0	
1	
0	
0	
0	
1	
0	
0	
0	
1	
0	
0	
0	
2	
1	
0	
1	
0	
0	
0	
0	
1	
0	
0	
0	
0	
0	
0	
0	
0	
0	
0	
0	
2	
0	
0	
1	
0	
0	
0	
1	
0	
0	
2	
0	
0	
0	
0	
1	
0	
1	
3	
0	
0	
0	
0	
0	
0	
0	
0	
1	
0	
1	
1	
0	
0	
0	
0	
0	
1	
0	
0	
0	
2	
1	
0	
1	
0	
0	
0	
1	
1	
0	
0	
0	
1	
0	
0	
0	
1	
1	
1	
0	
0	
0	
2	
0	
0	
0	
1	
0	
0	
0	
0	
0	
1	
0	
0	
0	
1	
0	
0	
0	
0	
0	
0	
0	
0	
1	
0	
0	
0	
0	
1	
0	
0	
0	
0	
0	
1	
1	
1	
0	
0	
0	
1	
2	
1	
0	
0	
1	
1	
0	
0	
1	
0	
0	
0	
0	
1	
0	
0	
0	
1	
0	
0	
0	
0	
1	
0	
1	
0	
0	
0	
0	
0	
2	
2	
0	
0	
0	
0	
0	
1	
1	
0	
0	
0	
0	
1	
0	
0	
1	
1	
0	
1	
0	
0	
0	
1	
0	
2	
1	
1	
1	
0	
0	
0	
0	
0	
0	
0	
0	
1	
0	
0	
0	
1	
1	
0	
1	
2	
0	
0	
0	
0	
1	
1	
1	
1	
1	
0	
0	
0	
0	
1	
0	
1	
0	
1	
1	
1	
0	
0	
0	
1	
0	
0	
1	
0	
2	
0	
1	
0	
0	
1	
0	
0	
0	
0	
1	
0	
0	
0	
0	
0	
0	
2	
2	
0	
0	
0	
0	
0	
0	
0	
0	
0	
1	
0	
1	
0	
0	
1	
0	
0	
1	
0	
0	
0	
0	
1	
0	
0	
0	
0	
0	
0	
2	
0	
2	
0	
0	
1	
0	
0	
0	
2	
1	
0	
0	
1	
1	
1	
1	
0	
1	
1	
0	
0	
0	
0	
0	
1	
0	
0	
1	
0	
2	
2	
0	
1	
1	
0	
1	
1	
1	
0	
0	
1	
1	
0	
0	
0	
1	
0	
0	
0	
0	
0	
0	
1	
0	
1	
0	
0	
0	
0	
0	
0	
0	
0	
1	
0	
3	
0	
0	
0	
1	
0	
1	
0	
0	
0	
0	
0	
0	
0	
1	
2	
0	
0	
2	
0	
0	
0	
0	
0	
1	
0	
0	
0	
0	
0	
0	
0	
0	
2	
0	
0	
0	
1	
0	
0	
0	
0	
0	
2	
2	
0	
2	
0	
0	
1	
0	
1	
1	
0	
0	
0	
0	
0	
1	
0	
0	
0	
0	
0	
0	
0	
0	
0	
0	
1	
0	
1	
1	
0	
0	
1	
0	
2	
1	
0	
1	
1	
0	
1	
1	
2	
6	
3	
6	
6	
5	
4	
14	
13	
8	
19	
11	
13	
21	
20	
28	
36	
26	
28	
36	
45	
41	
41	
48	
46	
54	
61	
69	
63	
61	
68	
72	
58	
72	
65	
67	
69	
76	
88	
74	
83	
70	
78	
81	
87	
96	
74	
76	
66	
73	
96	
76	
96	
87	
86	
66	
87	
91	
70	
85	
89	
98	
98	
67	
65	
93	
95	
91	
81	
82	
97	
85	
70	
100	
77	
81	
53	
71	
74	
72	
71	
72	
66	
79	
73	
84	
72	
76	
87	
80	
92	
77	
70	
81	
63	
85	
84	
77	
66	
76	
67	
82	
80	
70	
68	
82	
78	
82	
75	
66	
90	
81	
77	
79	
79	
72	
93	
82	
76	
64	
78	
76	
76	
84	
86	
76	
88	
67	
69	
88	
93	
72	
85	
82	
83	
73	
82	
81	
78	
70	
79	
82	
81	
72	
67	
63	
71	
84	
73	
82	
74	
84	
73	
83	
75	
68	
78	
74	
70	
88	
70	
64	
77	
71	
82	
59	
73	
83	
82	
74	
86	
85	
69	
67	
90	
80	
60	
59	
75	
88	
60	
85	
79	
82	
74	
61	
63	
81	
86	
66	
65	
77	
67	
71	
76	
64	
82	
60	
81	
68	
75	
75	
78	
72	
80	
67	
76	
69	
74	
63	
69	
74	
52	
91	
64	
77	
94	
69	
77	
77	
65	
75	
74	
64	
73	
59	
75	
65	
60	
55	
64	
61	
70	
54	
57	
55	
78	
62	
85	
63	
62	
75	
74	
81	
71	
66	
65	
57	
60	
75	
66	
73	
61	
76	
65	
62	
83	
71	
77	
60	
73	
73	
86	
69	
58	
67	
74	
81	
72	
66	
56	
64	
77	
58	
58	
44	
63	
66	
72	
62	
63	
63	
79	
66	
55	
65	
73	
61	
70	
48	
66	
57	
73	
54	
75	
64	
82	
52	
64	
61	
64	
63	
55	
64	
74	
63	
53	
54	
57	
62	
59	
65	
70	
65	
63	
71	
65	
73	
67	
54	
66	
65	
70	
61	
59	
65	
71	
69	
70	
61	
57	
56	
50	
70	
72	
72	
65	
61	
56	
52	
60	
68	
79	
46	
58	
64	
53	
61	
63	
79	
68	
61	
69	
76	
54	
68	
60	
64	
39	
46	
51	
69	
63	
56	
58	
69	
55	
70	
62	
73	
54	
70	
64	
57	
60	
61	
68	
67	
61	
59	
54	
70	
54	
62	
67	
68	
58	
70	
64	
59	
74	
73	
68	
58	
53	
57	
58	
61	
50	
56	
56	
65	
71	
70	
77	
39	
55	
64	
64	
53	
50	
67	
63	
55	
58	
54	
63	
62	
61	
65	
59	
58	
46	
56	
56	
51	
69	
57	
55	
55	
57	
66	
49	
62	
56	
49	
66	
64	
61	
77	
46	
55	
50	
62	
46	
53	
46	
60	
76	
52	
54	
54	
51	
67	
41	
61	
64	
55	
77	
60	
63	
60	
45	
46	
52	
51	
40	
57	
54	
64	
44	
49	
57	
67	
67	
52	
72	
65	
46	
57	
55	
54	
56	
53	
45	
53	
51	
46	
59	
60	
70	
45	
69	
47	
56	
57	
62	
53	
59	
59	
52	
53	
51	
46	
43	
45	
48	
54	
48	
55	
52	
55	
64	
49	
45	
50	
49	
55	
44	
55	
49	
46	
61	
51	
53	
53	
55	
57	
55	
57	
54	
59	
58	
56	
61	
58	
61	
53	
53	
60	
49	
52	
59	
55	
45	
53	
54	
58	
45	
51	
51	
56	
54	
44	
57	
54	
49	
51	
54	
47	
60	
55	
46	
47	
51	
54	
52	
39	
59	
65	
43	
44	
58	
49	
51	
55	
66	
46	
55	
66	
42	
53	
54	
47	
54	
52	
50	
51	
49	
53	
56	
53	
57	
46	
43	
53	
52	
61	
53	
54	
53	
61	
58	
55	
64	
41	
52	
51	
52	
47	
64	
52	
41	
39	
53	
40	
42	
57	
49	
58	
45	
38	
53	
49	
60	
36	
54	
65	
50	
44	
53	
47	
54	
43	
59	
55	
58	
55	
56	
51	
43	
45	
53	
38	
65	
51	
37	
42	
36	
54	
51	
50	
43	
48	
45	
47	
49	
58	
52	
65	
44	
42	
43	
41	
47	
62	
58	
60	
48	
59	
48	
48	
50	
55	
51	
51	
42	
38	
32	
41	
50	
51	
44	
39	
45	
53	
50	
46	
40	
42	
51	
58	
42	
46	
34	
52	
52	
54	
37	
46	
44	
56	
51	
46	
57	
47	
36	
45	
50	
44	
44	
53	
51	
23	
48	
45	
50	
45	
45	
43	
30	
40	
46	
51	
51	
44	
54	
41	
43	
59	
45	
41	
57	
31	
57	
35	
43	
56	
42	
38	
47	
58	
48	
46	
37	
50	
53	
52	
48	
41	
56	
58	
37	
41	
39	
50	
43	
49	
47	
33	
41	
44	
50	
53	
44	
50	
50	
44	
46	
50	
46	
49	
40	
39	
53	
43	
36	
41	
50	
42	
38	
54	
53	
38	
48	
47	
41	
44	
34	
47	
51	
37	
60	
43	
60	
36	
47	
40	
58	
43	
58	
41	
58	
48	
43	
34	
48	
53	
40	
40	
46	
36	
35	
35	
34	
47	
37	
39	
48	
42	
39	
35	
44	
39	
42	
54	
42	
46	
44	
60	
44	
39	
53	
35	
39	
32	
39	
35	
39	
46	
44	
42	
44	
44	
51	
55	
35	
34	
37	
35	
44	
40	
46	
39	
52	
51	
42	
40	
46	
42	
44	
42	
56	
37	
50	
39	
41	
38	
48	
36	
30	
56	
30	
35	
37	
49	
25	
33	
39	
57	
32	
39	
58	
41	
44	
47	
47	
46	
37	
43	
37	
44	
45	
41	
47	
33	
48	
36	
38	
39	
35	
37	
45	
57	
37	
48	
46	
38	
45	
48	
43	
37	
46	
45	
38	
34	
42	
44	
32	
59	
38	
40	
44	
42	
40	
37	
37	
44	
38	
46	
44	
43	
39	
36	
38	
42	
34	
45	
37	
28	
39	
39	
49	
50	
38	
34	
42	
40	
41	
31	
39	
48	
43	
38	
50	
39	
50	
42	
36	
43	
44	
29	
46	
52	
45	
42	
44	
47	
46	
34	
51	
29	
40	
48	
42	
42	
34	
33	
44	
32	
30	
36	
37	
33	
37	
30	
35	
36	
39	
48	
40	
34	
25	
44	
39	
27	
46	
50	
54	
45	
36	
51	
41	
31	
39	
34	
41	
49	
39	
35	
39	
43	
34	
36	
39	
30	
34	
38	
43	
35	
31	
51	
40	
38	
46	
30	
47	
31	
43	
35	
39	
35	
30	
39	
40	
44	
35	
37	
44	
33	
38	
46	
24	
33	
29	
41	
41	
34	
31	
34	
39	
36	
46	
30	
39	
40	
34	
35	
34	
37	
32	
41	
28	
48	
39	
29	
36	
31	
36	
28	
31	
46	
38	
37	
46	
30	
33	
41	
40	
33	
41	
38	
45	
39	
33	
46	
40	
28	
39	
31	
37	
35	
44	
45	
36	
40	
28	
49	
35	
30	
28	
24	
32	
39	
28	
48	
31	
31	
31	
35	
38	
32	
36	
30	
38	
39	
41	
42	
28	
26	
41	
49	
40	
34	
29	
25	
38	
31	
31	
30	
38	
28	
34	
29	
28	
42	
41	
32	
37	
32	
38	
34	
31	
34	
44	
47	
41	
25	
38	
39	
35	
34	
33	
36	
33	
32	
40	
34	
32	
34	
35	
33	
51	
39	
37	
34	
31	
43	
37	
32	
37	
39	
22	
34	
23	
32	
26	
26	
27	
35	
38	
31	
33	
33	
38	
48	
40	
38	
36	
34	
37	
36	
39	
38	
26	
37	
35	
46	
35	
26	
35	
41	
32	
36	
27	
34	
34	
33	
41	
27	
39	
40	
28	
40	
29	
47	
44	
33	
27	
36	
35	
29	
41	
39	
36	
28	
41	
42	
34	
27	
38	
32	
37	
34	
42	
27	
23	
35	
41	
30	
38	
34	
28	
34	
31	
29	
35	
35	
46	
27	
32	
27	
23	
30	
40	
30	
35	
32	
33	
29	
30	
32	
32	
36	
28	
32	
32	
31	
33	
24	
31	
30	
25	
36	
33	
38	
39	
41	
32	
31	
36	
46	
35	
33	
34	
30	
35	
32	
24	
36	
25	
32	
41	
33	
32	
22	
35	
32	
31	
29	
31	
26	
26	
34	
39	
42	
30	
32	
31	
34	
31	
35	
34	
41	
39	
38	
30	
28	
30	
38	
26	
41	
33	
31	
27	
36	
28	
35	
33	
39	
32	
39	
41	
32	
31	
34	
28	
32	
29	
44	
33	
27	
31	
29	
39	
38	
26	
30	
28	
28	
37	
47	
31	
22	
21	
36	
27	
30	
23	
30	
35	
32	
35	
24	
26	
39	
30	
30	
30	
40	
25	
27	
30	
35	
31	
35	
23	
34	
32	
28	
26	
26	
32	
30	
28	
31	
29	
22	
27	
34	
24	
25	
27	
30	
34	
41	
32	
27	
27	
29	
40	
37	
27	
27	
34	
24	
37	
26	
29	
38	
31	
35	
33	
33	
24	
35	
25	
30	
33	
36	
29	
28	
23	
30	
34	
22	
18	
27	
27	
42	
30	
25	
27	
29	
26	
30	
36	
25	
24	
32	
20	
23	
24	
38	
30	
34	
26	
35	
26	
38	
32	
36	
31	
31	
30	
28	
19	
30	
32	
28	
25	
34	
34	
33	
24	
37	
23	
17	
40	
24	
26	
31	
30	
25	
33	
25	
37	
29	
34	
30	
25	
18	
27	
33	
29	
35	
26	
32	
17	
25	
32	
25	
29	
32	
26	
38	
25	
31	
35	
31	
20	
33	
26	
25	
27	
33	
29	
31	
30	
25	
28	
26	
21	
30	
24	
20	
30	
26	
18	
21	
26	
28	
28	
35	
21	
26	
30	
39	
32	
26	
34	
32	
26	
25	
28	
38	
26	
26	
22	
29	
30	
31	
33	
32	
25	
26	
22	
23	
25	
23	
28	
35	
28	
31	
22	
28	
37	
27	
30	
20	
24	
24	
35	
33	
21	
27	
30	
39	
32	
27	
32	
25	
26	
23	
23	
22	
27	
20	
34	
26	
27	
27	
26	
23	
26	
26	
23	
25	
24	
27	
31	
32	
20	
26	
31	
25	
27	
25	
25	
33	
19	
20	
22	
22	
35	
18	
29	
22	
37	
31	
25	
41	
33	
30	
24	
27	
33	
22	
23	
32	
23	
24	
33	
31	
23	
32	
24	
35	
21	
27	
26	
26	
22	
20	
24	
35	
27	
28	
21	
29	
23	
28	
19	
24	
27	
24	
23	
19	
29	
20	
17	
27	
16	
31	
24	
34	
38	
24	
24	
30	
20	
22	
30	
24	
29	
20	
12	
34	
26	
28	
31	
20	
22	
31	
23	
27	
28	
20	
32	
25	
28	
25	
32	
20	
26	
27	
29	
27	
25	
23	
24	
29	
29	
25	
29	
26	
19	
20	
35	
23	
25	
21	
28	
34	
23	
28	
27	
22	
27	
29	
25	
28	
20	
30	
19	
27	
16	
16	
16	
24	
21	
19	
16	
20	
25	
25	
25	
25	
24	
26	
22	
19	
23	
29	
26	
25	
33	
32	
28	
26	
32	
22	
35	
22	
37	
24	
22	
24	
28	
19	
23	
24	
21	
22	
28	
34	
23	
25	
19	
19	
14	
30	
26	
23	
27	
27	
24	
22	
27	
29	
29	
19	
25	
28	
28	
29	
24	
21	
19	
18	
32	
20	
23	
28	
34	
30	
23	
29	
24	
27	
24	
29	
24	
23	
23	
25	
25	
23	
18	
28	
22	
24	
24	
18	
25	
23	
26	
26	
23	
20	
23	
26	
24	
13	
23	
19	
22	
18	
17	
17	
13	
18	
24	
20	
29	
26	
24	
17	
22	
28	
23	
22	
26	
26	
20	
35	
21	
23	
17	
26	
22	
19	
25	
19	
21	
20	
24	
13	
24	
24	
25	
24	
29	
20	
25	
24	
31	
27	
27	
25	
20	
27	
31	
22	
25	
17	
21	
22	
28	
20	
18	
20	
16	
24	
27	
20	
18	
32	
26	
28	
17	
22	
19	
23	
19	
18	
21	
26	
23	
21	
20	
20	
24	
22	
25	
18	
13	
18	
22	
20	
15	
20	
18	
24	
18	
25	
15	
21	
23	
19	
16	
32	
22	
28	
25	
19	
33	
19	
18	
23	
20	
23	
19	
18	
26	
19	
17	
22	
26	
30	
23	
18	
25	
18	
15	
28	
23	
31	
18	
21	
21	
17	
15	
22	
16	
20	
29	
29	
21	
23	
18	
15	
28	
21	
19	
26	
22	
20	
24	
34	
24	
24	
28	
23	
22	
32	
19	
22	
25	
9	
23	
20	
18	
30	
17	
18	
19	
21	
22	
19	
22	
26	
15	
24	
23	
19	
21	
16	
15	
24	
20	
14	
23	
17	
14	
16	
23	
26	
29	
24	
26	
22	
22	
18	
23	
28	
24	
26	
20	
28	
23	
17	
21	
22	
17	
21	
19	
17	
14	
12	
24	
27	
17	
16	
29	
17	
26	
27	
18	
16	
15	
29	
20	
26	
22	
19	
24	
19	
19	
18	
15	
24	
12	
21	
18	
20	
16	
26	
29	
26	
23	
28	
22	
19	
27	
21	
15	
16	
25	
25	
19	
23	
24	
16	
19	
21	
16	
34	
22	
22	
13	
12	
22	
16	
26	
12	
17	
18	
25	
14	
25	
23	
17	
26	
15	
16	
16	
18	
20	
20	
16	
28	
19	
23	
24	
22	
20	
18	
17	
21	
21	
21	
17	
21	
16	
22	
26	
15	
21	
20	
20	
18	
23	
17	
20	
22	
26	
20	
11	
19	
23	
18	
29	
12	
19	
18	
17	
20	
26	
22	
15	
19	
25	
24	
22	
29	
14	
17	
16	
17	
21	
14	
14	
17	
15	
18	
16	
16	
27	
18	
17	
17	
18	
14	
22	
13	
24	
25	
19	
9	
19	
22	
24	
22	
18	
15	
20	
25	
21	
22	
23	
13	
20	
20	
13	
22	
24	
19	
21	
15	
21	
18	
40	
21	
21	
18	
25	
14	
13	
16	
16	
25	
16	
16	
17	
16	
14	
20	
19	
21	
26	
20	
23	
14	
21	
25	
25	
13	
24	
14	
14	
19	
16	
18	
26	
24	
18	
18	
8	
21	
22	
14	
18	
17	
16	
17	
20	
16	
19	
19	
16	
16	
13	
19	
15	
16	
20	
19	
25	
25	
24	
23	
14	
25	
17	
20	
20	
22	
13	
15	
13	
27	
19	
20	
25	
19	
20	
16	
25	
23	
16	
22	
30	
15	
22	
21	
13	
11	
22	
29	
13	
17	
11	
24	
12	
27	
14	
15	
14	
21	
13	
20	
15	
23	
15	
19	
12	
15	
20	
22	
26	
18	
25	
23	
23	
17	
11	
15	
16	
22	
18	
24	
16	
26	
15	
24	
13	
12	
14	
17	
12	
18	
12	
7	
13	
22	
15	
14	
17	
10	
20	
19	
16	
16	
24	
15	
16	
20	
16	
14	
12	
17	
23	
12	
18	
15	
15	
23	
17	
17	
13	
18	
13	
12	
22	
16	
21	
16	
15	
15	
16	
12	
14	
18	
20	
17	
22	
18	
21	
17	
22	
12	
15	
13	
19	
19	
18	
20	
16	
19	
13	
23	
19	
17	
12	
17	
13	
16	
23	
22	
18	
24	
11	
19	
18	
23	
25	
12	
15	
14	
23	
17	
9	
14	
23	
15	
11	
20	
14	
23	
16	
14	
14	
15	
19	
16	
20	
23	
23	
21	
21	
9	
16	
23	
15	
20	
23	
18	
15	
23	
22	
11	
19	
20	
19	
30	
23	
16	
11	
21	
19	
16	
22	
20	
16	
15	
16	
13	
17	
15	
11	
11	
13	
15	
15	
10	
20	
16	
11	
19	
10	
21	
16	
15	
16	
10	
18	
23	
16	
13	
15	
21	
9	
19	
17	
16	
15	
11	
23	
19	
23	
20	
19	
15	
16	
28	
17	
13	
13	
13	
17	
10	
12	
9	
18	
11	
27	
15	
18	
16	
19	
16	
16	
15	
17	
14	
17	
16	
23	
24	
18	
14	
10	
13	
20	
19	
23	
17	
14	
10	
11	
15	
13	
9	
9	
15	
16	
19	
9	
15	
17	
16	
16	
20	
20	
16	
15	
16	
13	
23	
14	
14	
20	
16	
16	
12	
15	
14	
17	
19	
18	
19	
13	
15	
17	
17	
15	
16	
17	
19	
15	
12	
20	
13	
13	
19	
16	
13	
14	
20	
17	
22	
14	
11	
19	
15	
12	
13	
25	
10	
22	
14	
17	
14	
20	
19	
19	
16	
12	
11	
17	
20	
11	
14	
13	
18	
18	
17	
12	
21	
14	
13	
20	
16	
13	
25	
21	
15	
18	
11	
20	
12	
13	
22	
10	
17	
12	
20	
15	
19	
17	
19	
14	
14	
15	
13	
22	
23	
13	
11	
13	
22	
11	
12	
16	
22	
14	
13	
10	
13	
16	
7	
12	
12	
16	
15	
15	
9	
15	
15	
21	
12	
14	
10	
16	
15	
12	
15	
13	
11	
9	
16	
12	
19	
11	
14	
14	
17	
14	
12	
14	
22	
13	
10	
9	
13	
15	
16	
21	
13	
12	
17	
9	
14	
10	
19	
16	
10	
15	
13	
16	
13	
14	
14	
13	
13	
28	
18	
9	
10	
15	
13	
13	
16	
18	
13	
14	
20	
17	
9	
21	
13	
22	
15	
11	
23	
14	
9	
10	
15	
10	
14	
15	
21	
11	
15	
17	
15	
16	
12	
13	
14	
11	
11	
14	
8	
17	
14	
13	
12	
15	
18	
22	
11	
17	
16	
13	
22	
10	
15	
12	
16	
16	
14	
8	
24	
13	
11	
14	
6	
13	
13	
14	
17	
11	
20	
14	
11	
16	
14	
14	
18	
15	
10	
9	
9	
10	
6	
14	
20	
10	
9	
17	
19	
15	
15	
18	
18	
16	
9	
20	
6	
13	
28	
15	
11	
14	
11	
11	
8	
15	
17	
19	
19	
10	
12	
14	
15	
16	
11	
15	
17	
11	
11	
20	
14	
10	
12	
14	
11	
8	
12	
15	
12	
14	
23	
15	
12	
11	
15	
19	
14	
13	
9	
8	
12	
15	
16	
9	
21	
11	
13	
13	
12	
16	
12	
16	
16	
15	
17	
13	
10	
14	
14	
16	
17	
12	
12	
13	
10	
11	
11	
14	
19	
16	
9	
15	
18	
11	
9	
17	
13	
6	
18	
14	
16	
13	
22	
15	
16	
12	
14	
10	
23	
17	
20	
9	
14	
13	
3	
13	
10	
13	
17	
17	
18	
18	
9	
13	
14	
13	
20	
11	
16	
9	
21	
18	
8	
15	
15	
18	
13	
11	
13	
14	
14	
6	
14	
13	
19	
8	
17	
7	
14	
13	
10	
15	
16	
15	
12	
11	
18	
13	
14	
12	
14	
21	
13	
12	
18	
16	
17	
8	
15	
8	
10	
9	
12	
16	
16	
15	
13	
12	
14	
22	
13	
17	
13	
15	
13	
15	
14	
13	
20	
13	
18	
8	
20	
15	
17	
14	
7	
12	
17	
14	
14	
14	
19	
12	
12	
13	
22	
8	
13	
14	
18	
12	
16	
10	
13	
12	
10	
20	
13	
13	
15	
11	
11	
9	
13	
11	
12	
16	
12	
11	
13	
16	
9	
15	
14	
11	
13	
13	
16	
14	
12	
20	
17	
9	
13	
12	
16	
18	
10	
12	
12	
17	
19	
6	
10	
11	
10	
13	
18	
19	
11	
14	
18	
23	
8	
12	
12	
8	
21	
8	
26	
13	
9	
8	
11	
12	
18	
15	
12	
13	
7	
11	
11	
14	
8	
16	
10	
13	
8	
18	
10	
9	
10	
10	
10	
18	
12	
8	
11	
19	
14	
13	
12	
13	
7	
10	
8	
15	
12	
12	
11	
21	
9	
15	
23	
13	
11	
9	
13	
9	
9	
5	
7	
11	
12	
13	
17	
8	
11	
13	
11	
13	
9	
11	
10	
11	
9	
15	
16	
23	
17	
10	
12	
6	
13	
12	
19	
16	
16	
11	
18	
6	
6	
17	
16	
15	
15	
10	
11	
12	
17	
9	
8	
16	
9	
11	
8	
18	
10	
13	
17	
15	
14	
13	
11	
9	
11	
10	
11	
16	
10	
11	
12	
12	
14	
15	
9	
11	
18	
13	
12	
18	
7	
11	
11	
9	
15	
12	
17	
18	
14	
14	
13	
9	
12	
15	
11	
8	
12	
13	
8	
16	
11	
8	
14	
15	
11	
13	
10	
12	
7	
13	
7	
17	
13	
14	
7	
9	
13	
6	
16	
12	
10	
11	
9	
17	
16	
17	
18	
16	
12	
12	
8	
16	
15	
22	
9	
18	
11	
11	
8	
14	
7	
9	
12	
14	
13	
11	
20	
8	
10	
14	
10	
10	
12	
13	
16	
16	
14	
7	
13	
7	
11	
9	
6	
16	
13	
11	
12	
12	
7	
18	
9	
8	
11	
7	
9	
11	
16	
16	
7	
14	
15	
12	
18	
10	
11	
13	
8	
11	
10	
13	
11	
11	
8	
11	
14	
14	
10	
13	
16	
11	
8	
8	
16	
12	
21	
13	
11	
13	
8	
13	
8	
6	
12	
8	
15	
8	
11	
13	
16	
7	
7	
14	
10	
8	
16	
12	
16	
7	
9	
3	
12	
13	
21	
7	
11	
10	
6	
13	
12	
11	
7	
10	
10	
15	
12	
14	
12	
5	
11	
12	
17	
15	
7	
10	
11	
12	
9	
8	
11	
10	
7	
15	
14	
14	
4	
6	
9	
8	
9	
4	
11	
12	
7	
10	
10	
14	
12	
12	
10	
11	
4	
7	
9	
8	
13	
8	
11	
13	
13	
15	
7	
7	
10	
8	
13	
8	
17	
9	
9	
14	
12	
7	
12	
14	
10	
13	
15	
11	
18	
11	
12	
10	
14	
14	
11	
10	
15	
9	
13	
14	
8	
11	
10	
12	
13	
9	
19	
11	
10	
10	
7	
8	
8	
12	
8	
9	
11	
17	
6	
12	
9	
13	
10	
15	
12	
7	
14	
10	
9	
7	
6	
11	
8	
4	
12	
11	
10	
20	
11	
13	
8	
16	
12	
7	
10	
8	
10	
8	
11	
8	
13	
14	
13	
17	
11	
13	
11	
14	
9	
10	
12	
12	
13	
7	
8	
12	
15	
9	
10	
9	
7	
7	
11	
8	
7	
8	
15	
11	
8	
8	
9	
13	
20	
8	
10	
7	
8	
10	
9	
14	
7	
5	
9	
13	
7	
4	
6	
14	
11	
12	
7	
7	
10	
6	
14	
10	
7	
15	
12	
9	
6	
8	
13	
16	
8	
10	
8	
12	
14	
5	
11	
12	
10	
5	
11	
8	
9	
15	
8	
10	
6	
10	
9	
6	
12	
15	
8	
11	
9	
9	
9	
12	
5	
8	
16	
7	
8	
10	
9	
14	
7	
9	
12	
7	
10	
5	
10	
15	
10	
3	
5	
11	
10	
17	
13	
3	
10	
11	
5	
2	
7	
12	
10	
8	
13	
6	
5	
11	
6	
8	
10	
13	
8	
9	
10	
12	
11	
6	
8	
9	
10	
5	
4	
10	
13	
9	
7	
11	
10	
11	
8	
15	
13	
4	
8	
12	
8	
12	
6	
12	
9	
13	
10	
9	
9	
8	
17	
7	
8	
8	
5	
10	
12	
12	
9	
4	
14	
13	
8	
8	
11	
10	
13	
12	
10	
11	
2	
9	
11	
9	
6	
5	
7	
12	
12	
10	
9	
12	
11	
16	
12	
14	
8	
4	
11	
5	
11	
11	
9	
8	
14	
10	
14	
13	
9	
5	
8	
10	
11	
11	
12	
15	
11	
14	
6	
4	
11	
6	
9	
13	
14	
11	
15	
12	
9	
13	
11	
7	
8	
7	
8	
8	
8	
9	
9	
11	
9	
8	
9	
11	
13	
13	
10	
13	
8	
6	
11	
9	
5	
7	
10	
7	
9	
8	
6	
7	
10	
10	
12	
6	
13	
12	
16	
10	
9	
14	
8	
9	
7	
8	
5	
9	
8	
8	
5	
12	
7	
7	
8	
2	
9	
13	
3	
9	
5	
5	
11	
11	
10	
7	
14	
10	
10	
14	
11	
11	
11	
7	
7	
11	
10	
6	
6	
4	
13	
13	
7	
14	
11	
13	
6	
13	
10	
6	
4	
8	
16	
8	
8	
11	
7	
8	
6	
12	
10	
9	
7	
12	
7	
7	
3	
12	
4	
9	
6	
11	
10	
12	
6	
8	
10	
10	
8	
11	
11	
10	
12	
8	
11	
4	
14	
13	
13	
7	
7	
4	
6	
13	
6	
7	
12	
8	
10	
4	
6	
10	
5	
6	
8	
13	
10	
10	
7	
8	
10	
7	
8	
13	
9	
6	
12	
10	
9	
12	
5	
10	
12	
11	
6	
11	
11	
9	
11	
10	
13	
7	
13	
9	
10	
11	
7	
15	
9	
9	
7	
14	
10	
11	
12	
6	
5	
11	
5	
11	
10	
6	
10	
9	
9	
9	
15	
6	
11	
8	
16	
5	
11	
9	
9	
6	
8	
8	
7	
10	
15	
10	
3	
11	
5	
9	
11	
13	
14	
10	
4	
12	
8	
5	
15	
8	
12	
11	
9	
8	
5	
11	
4	
11	
6	
8	
11	
8	
4	
10	
4	
6	
7	
5	
9	
12	
6	
10	
7	
14	
11	
4	
5	
9	
12	
8	
7	
6	
8	
4	
12	
5	
8	
9	
8	
11	
8	
11	
12	
6	
10	
9	
11	
6	
7	
4	
8	
6	
7	
11	
6	
17	
7	
8	
8	
5	
13	
7	
6	
10	
10	
6	
4	
12	
10	
7	
3	
8	
6	
8	
14	
10	
6	
7	
2	
5	
11	
11	
4	
7	
4	
6	
7	
7	
8	
10	
10	
9	
11	
9	
6	
8	
10	
6	
10	
5	
5	
8	
5	
7	
7	
14	
9	
7	
11	
7	
20	
14	
6	
11	
12	
6	
10	
7	
8	
8	
17	
11	
10	
10	
12	
6	
13	
8	
9	
13	
6	
11	
9	
9	
8	
9	
6	
7	
9	
7	
8	
9	
11	
7	
6	
5	
6	
6	
7	
3	
9	
7	
9	
8	
7	
7	
11	
12	
8	
12	
6	
8	
10	
9	
10	
5	
6	
12	
7	
14	
9	
8	
4	
11	
8	
7	
5	
5	
11	
3	
6	
7	
5	
6	
15	
10	
6	
11	
4	
3	
7	
9	
4	
8	
7	
10	
9	
4	
7	
8	
4	
7	
8	
9	
4	
6	
12	
8	
4	
2	
8	
8	
9	
7	
9	
9	
11	
6	
13	
8	
12	
11	
3	
8	
11	
12	
5	
7	
8	
3	
3	
5	
9	
13	
3	
11	
10	
6	
12	
5	
6	
8	
9	
9	
9	
9	
7	
5	
10	
7	
10	
5	
7	
9	
6	
12	
9	
12	
8	
5	
8	
6	
9	
4	
8	
7	
7	
6	
6	
6	
9	
9	
8	
9	
11	
6	
10	
6	
5	
7	
5	
8	
7	
7	
6	
11	
11	
9	
8	
7	
4	
10	
7	
11	
10	
10	
8	
11	
5	
9	
11	
3	
5	
8	
6	
7	
7	
11	
7	
5	
9	
8	
15	
7	
10	
6	
2	
9	
6	
12	
9	
8	
9	
8	
9	
7	
5	
9	
10	
5	
8	
13	
7	
8	
8	
7	
9	
6	
5	
2	
7	
7	
7	
9	
5	
8	
5	
11	
12	
3	
10	
8	
6	
3	
5	
9	
8	
6	
10	
5	
5	
11	
8	
8	
10	
2	
7	
11	
7	
4	
7	
7	
11	
5	
7	
9	
2	
4	
7	
11	
12	
7	
10	
9	
11	
8	
9	
6	
15	
6	
5	
8	
10	
8	
16	
8	
4	
4	
6	
4	
6	
2	
7	
10	
11	
12	
8	
6	
5	
3	
11	
9	
7	
7	
5	
5	
9	
4	
6	
11	
7	
10	
7	
3	
13	
8	
12	
9	
9	
6	
5	
10	
8	
10	
8	
8	
5	
7	
7	
11	
8	
8	
7	
12	
6	
9	
6	
5	
6	
7	
5	
3	
6	
5	
5	
11	
6	
5	
5	
6	
8	
6	
7	
4	
8	
7	
9	
13	
6	
8	
3	
7	
8	
8	
4	
10	
4	
7	
7	
8	
7	
7	
7	
4	
11	
7	
10	
9	
10	
6	
6	
3	
8	
5	
4	
13	
6	
10	
6	
4	
1	
9	
6	
9	
8	
6	
5	
7	
7	
9	
10	
9	
7	
16	
7	
5	
6	
3	
9	
4	
11	
4	
10	
11	
7	
15	
6	
9	
3	
9	
9	
7	
6	
8	
7	
8	
6	
10	
3	
8	
9	
8	
6	
5	
11	
7	
8	
5	
2	
5	
4	
7	
6	
9	
9	
11	
5	
5	
7	
6	
5	
8	
6	
4	
10	
8	
10	
7	
9	
7	
5	
6	
6	
12	
7	
7	
9	
8	
5	
5	
8	
10	
6	
2	
6	
7	
7	
5	
5	
6	
10	
6	
9	
1	
4	
5	
10	
8	
9	
7	
8	
5	
8	
7	
4	
9	
7	
10	
9	
7	
9	
9	
11	
8	
5	
4	
4	
5	
3	
3	
1	
3	
3	
1	
5	
8	
7	
6	
6	
7	
3	
7	
6	
4	
9	
5	
7	
8	
7	
8	
5	
3	
7	
5	
5	
3	
14	
6	
4	
7	
6	
11	
8	
8	
7	
4	
7	
8	
4	
2	
3	
7	
4	
7	
4	
3	
12	
9	
4	
3	
5	
7	
7	
5	
3	
8	
4	
6	
9	
3	
8	
4	
6	
6	
10	
5	
4	
9	
5	
10	
7	
1	
5	
7	
6	
6	
7	
8	
4	
7	
4	
10	
3	
2	
3	
7	
5	
5	
4	
2	
2	
6	
14	
13	
13	
5	
5	
8	
7	
5	
5	
1	
3	
6	
6	
4	
5	
7	
7	
6	
7	
3	
6	
8	
5	
4	
8	
8	
6	
10	
6	
7	
7	
4	
4	
4	
5	
3	
9	
4	
5	
3	
10	
4	
10	
4	
4	
4	
5	
3	
8	
7	
4	
6	
8	
0	
5	
5	
9	
6	
5	
3	
4	
7	
5	
7	
5	
14	
8	
3	
6	
7	
4	
9	
6	
5	
6	
7	
7	
6	
3	
7	
4	
8	
8	
7	
7	
1	
6	
10	
8	
7	
8	
12	
2	
6	
4	
6	
6	
7	
3	
3	
6	
4	
9	
2	
5	
7	
8	
10	
3	
7	
6	
6	
7	
4	
7	
7	
6	
6	
7	
6	
11	
3	
5	
3	
4	
4	
9	
6	
6	
2	
4	
2	
5	
4	
6	
8	
6	
8	
2	
4	
4	
8	
1	
5	
10	
9	
8	
4	
2	
7	
8	
4	
8	
8	
11	
3	
9	
3	
6	
8	
9	
7	
9	
3	
3	
6	
4	
5	
8	
3	
7	
9	
9	
3	
4	
2	
6	
6	
4	
10	
5	
4	
9	
7	
3	
3	
4	
6	
9	
9	
3	
7	
10	
14	
5	
7	
1	
7	
10	
6	
5	
4	
4	
3	
3	
7	
6	
6	
4	
6	
6	
2	
6	
10	
8	
4	
7	
6	
3	
5	
4	
6	
6	
4	
6	
8	
0	
5	
3	
8	
5	
10	
3	
3	
5	
3	
1	
6	
6	
7	
4	
5	
8	
4	
4	
5	
5	
5	
5	
4	
6	
8	
6	
7	
7	
3	
5	
4	
3	
4	
5	
4	
2	
4	
7	
4	
7	
4	
2	
5	
6	
5	
11	
8	
5	
4	
3	
6	
4	
6	
2	
8	
7	
3	
9	
7	
6	
5	
3	
3	
3	
4	
5	
4	
6	
12	
3	
9	
4	
11	
5	
5	
5	
5	
9	
8	
1	
14	
2	
7	
9	
3	
1	
4	
9	
6	
5	
8	
4	
7	
10	
4	
3	
4	
5	
6	
3	
9	
1	
3	
3	
7	
2	
4	
7	
11	
8	
6	
3	
7	
6	
5	
7	
7	
5	
0	
4	
10	
6	
2	
2	
9	
5	
1	
5	
3	
6	
4	
6	
4	
4	
4	
4	
1	
9	
6	
6	
3	
10	
6	
1	
4	
8	
4	
9	
3	
3	
5	
4	
5	
7	
4	
4	
2	
3	
9	
7	
7	
8	
4	
11	
4	
3	
6	
7	
3	
4	
1	
2	
9	
3	
5	
8	
3	
6	
5	
4	
4	
8	
3	
3	
10	
4	
4	
5	
3	
5	
5	
5	
4	
7	
9	
5	
4	
4	
6	
3	
3	
4	
7	
7	
2	
7	
6	
5	
9	
5	
7	
4	
3	
4	
7	
10	
7	
6	
3	
3	
6	
4	
3	
5	
5	
8	
3	
8	
5	
5	
9	
9	
4	
4	
3	
7	
2	
3	
2	
4	
4	
2	
2	
9	
7	
8	
3	
9	
3	
4	
6	
4	
5	
5	
7	
3	
5	
2	
3	
3	
3	
10	
3	
5	
4	
1	
5	
6	
4	
3	
3	
6	
6	
7	
4	
5	
4	
3	
5	
2	
5	
10	
5	
7	
2	
5	
4	
6	
8	
3	
5	
4	
9	
10	
3	
3	
7	
6	
8	
7	
7	
5	
3	
3	
5	
10	
4	
7	
5	
2	
2	
3	
5	
4	
3	
5	
5	
4	
3	
6	
5	
5	
2	
1	
3	
8	
7	
4	
1	
4	
8	
4	
6	
3	
3	
5	
11	
4	
2	
2	
8	
6	
5	
5	
4	
3	
7	
4	
4	
3	
4	
5	
9	
4	
2	
5	
5	
7	
9	
2	
7	
11	
9	
7	
6	
7	
8	
6	
5	
8	
3	
5	
3	
5	
3	
8	
3	
6	
4	
7	
7	
5	
5	
3	
7	
3	
1	
5	
7	
5	
5	
8	
3	
6	
4	
4	
7	
1	
12	
2	
9	
4	
3	
5	
4	
4	
3	
8	
4	
7	
7	
5	
6	
5	
1	
5	
4	
3	
3	
4	
7	
6	
3	
3	
5	
4	
11	
3	
2	
1	
5	
3	
3	
2	
1	
9	
5	
3	
4	
3	
8	
8	
3	
3	
2	
6	
7	
3	
6	
5	
4	
3	
4	
5	
3	
3	
1	
6	
3	
2	
7	
5	
2	
5	
4	
3	
4	
2	
2	
4	
3	
7	
4	
2	
6	
5	
3	
4	
5	
7	
7	
4	
10	
5	
5	
4	
2	
6	
7	
3	
3	
5	
2	
4	
2	
5	
3	
9	
6	
7	
4	
7	
3	
5	
4	
2	
7	
4	
1	
2	
12	
7	
8	
4	
10	
5	
4	
2	
6	
10	
4	
6	
9	
6	
5	
2	
3	
3	
6	
4	
6	
3	
5	
3	
4	
6	
5	
7	
3	
2	
7	
6	
5	
5	
4	
7	
7	
4	
4	
4	
3	
5	
5	
5	
11	
6	
3	
5	
6	
4	
3	
2	
5	
6	
5	
11	
5	
4	
5	
4	
3	
5	
3	
4	
6	
5	
4	
2	
3	
2	
7	
3	
4	
8	
2	
8	
8	
1	
6	
3	
6	
4	
3	
3	
5	
6	
5	
2	
10	
5	
6	
2	
2	
5	
5	
1	
6	
6	
10	
4	
4	
6	
6	
5	
5	
2	
3	
3	
3	
5	
4	
6	
2	
4	
4	
2	
1	
7	
3	
7	
6	
3	
3	
4	
1	
9	
2	
4	
5	
3	
5	
8	
0	
1	
3	
3	
3	
2	
2	
7	
5	
5	
2	
5	
6	
2	
5	
5	
2	
6	
6	
6	
3	
5	
2	
7	
4	
5	
4	
4	
6	
0	
1	
8	
3	
3	
7	
3	
3	
6	
5	
6	
3	
3	
8	
7	
9	
8	
6	
4	
5	
4	
3	
3	
2	
6	
3	
5	
2	
4	
6	
5	
2	
4	
5	
4	
4	
4	
4	
5	
5	
4	
5	
5	
4	
4	
1	
7	
6	
5	
2	
5	
1	
4	
7	
4	
0	
4	
8	
6	
4	
9	
3	
3	
4	
11	
4	
0	
7	
3	
5	
6	
5	
7	
2	
8	
3	
3	
3	
4	
3	
1	
2	
2	
4	
7	
3	
2	
1	
6	
5	
6	
4	
2	
3	
7	
2	
0	
6	
2	
0	
3	
4	
7	
6	
7	
4	
5	
6	
6	
5	
3	
2	
3	
3	
2	
4	
3	
3	
1	
7	
5	
3	
6	
6	
1	
6	
4	
3	
1	
3	
4	
5	
5	
7	
1	
3	
4	
3	
3	
4	
2	
8	
5	
5	
5	
2	
2	
3	
1	
6	
2	
5	
3	
5	
2	
4	
3	
7	
4	
6	
4	
2	
5	
4	
5	
5	
4	
4	
5	
3	
7	
4	
5	
3	
2	
6	
3	
3	
3	
8	
4	
2	
4	
5	
2	
3	
5	
2	
4	
1	
6	
0	
4	
4	
6	
3	
4	
4	
3	
4	
4	
4	
2	
5	
3	
5	
5	
7	
6	
5	
10	
3	
7	
4	
1	
3	
2	
10	
3	
4	
3	
3	
7	
6	
4	
4	
3	
1	
5	
2	
2	
5	
3	
9	
3	
4	
6	
5	
3	
4	
4	
8	
3	
4	
7	
2	
6	
7	
4	
3	
6	
6	
5	
2	
2	
9	
0	
5	
1	
3	
5	
1	
3	
3	
5	
4	
0	
8	
4	
2	
0	
5	
3	
3	
4	
5	
5	
2	
2	
6	
5	
4	
4	
2	
7	
7	
4	
2	
4	
7	
4	
7	
5	
3	
4	
4	
7	
3	
3	
5	
6	
5	
3	
2	
1	
6	
3	
6	
5	
0	
2	
3	
4	
11	
5	
3	
2	
4	
1	
7	
2	
2	
3	
5	
7	
7	
4	
7	
4	
4	
4	
6	
4	
4	
3	
1	
4	
6	
5	
2	
5	
3	
2	
4	
3	
4	
1	
5	
2	
1	
6	
6	
5	
2	
2	
4	
4	
0	
4	
2	
5	
4	
5	
4	
2	
2	
4	
4	
3	
3	
1	
5	
5	
5	
3	
4	
3	
7	
4	
0	
3	
5	
2	
2	
0	
1	
3	
3	
1	
3	
3	
4	
1	
5	
3	
5	
3	
3	
7	
1	
5	
1	
1	
3	
4	
3	
6	
1	
6	
4	
2	
1	
0	
4	
3	
3	
4	
2	
0	
4	
3	
1	
6	
4	
8	
1	
6	
4	
4	
4	
4	
4	
4	
2	
5	
1	
4	
2	
3	
7	
3	
2	
1	
2	
5	
3	
8	
3	
4	
2	
4	
5	
7	
1	
6	
0	
5	
0	
5	
1	
4	
6	
2	
4	
4	
4	
7	
3	
10	
2	
6	
1	
3	
5	
3	
5	
5	
4	
5	
8	
6	
4	
5	
4	
4	
1	
4	
4	
2	
8	
3	
2	
4	
3	
5	
8	
5	
5	
4	
5	
2	
4	
1	
3	
3	
7	
8	
2	
4	
5	
2	
2	
1	
5	
2	
4	
6	
4	
4	
3	
1	
5	
9	
4	
4	
6	
3	
4	
3	
8	
3	
3	
4	
3	
3	
2	
2	
2	
2	
5	
2	
3	
7	
6	
3	
6	
6	
2	
3	
3	
3	
3	
4	
4	
5	
5	
2	
4	
3	
7	
3	
1	
5	
8	
0	
3	
5	
3	
2	
3	
1	
2	
3	
2	
5	
4	
5	
2	
6	
4	
2	
2	
5	
0	
0	
6	
4	
3	
2	
5	
2	
2	
3	
1	
4	
1	
4	
2	
5	
2	
1	
2	
1	
6	
3	
1	
4	
1	
2	
3	
4	
1	
5	
3	
8	
2	
5	
3	
6	
2	
3	
1	
3	
6	
1	
5	
5	
4	
5	
3	
1	
1	
4	
3	
3	
2	
1	
4	
6	
4	
3	
2	
4	
3	
6	
4	
3	
6	
2	
2	
4	
3	
6	
3	
4	
1	
2	
4	
5	
3	
4	
1	
1	
2	
4	
1	
1	
4	
2	
2	
1	
1	
4	
2	
4	
0	
4	
4	
2	
4	
2	
5	
4	
2	
2	
3	
3	
4	
0	
4	
6	
5	
1	
2	
1	
1	
2	
5	
7	
4	
1	
4	
3	
2	
4	
3	
1	
2	
5	
2	
3	
2	
2	
4	
5	
2	
5	
4	
3	
1	
4	
3	
4	
2	
5	
1	
3	
5	
2	
5	
2	
7	
2	
5	
5	
7	
1	
6	
2	
4	
3	
6	
2	
2	
6	
3	
3	
1	
2	
4	
3	
4	
7	
1	
3	
3	
2	
3	
3	
6	
3	
2	
3	
5	
1	
5	
1	
2	
1	
2	
2	
5	
2	
1	
3	
2	
5	
3	
2	
5	
2	
3	
6	
6	
5	
4	
1	
2	
2	
2	
5	
2	
2	
2	
1	
3	
5	
4	
3	
4	
2	
2	
3	
3	
3	
5	
1	
2	
0	
2	
1	
3	
5	
2	
1	
1	
4	
3	
2	
3	
1	
4	
7	
4	
7	
2	
7	
1	
4	
3	
4	
4	
3	
3	
5	
4	
1	
1	
4	
3	
5	
4	
5	
2	
4	
1	
3	
1	
5	
0	
3	
0	
1	
1	
3	
3	
2	
5	
4	
6	
2	
2	
1	
7	
3	
1	
3	
2	
1	
4	
1	
7	
0	
0	
2	
3	
2	
3	
2	
1	
3	
3	
3	
5	
0	
2	
8	
2	
4	
4	
0	
4	
2	
3	
2	
2	
6	
2	
3	
2	
7	
1	
4	
7	
2	
3	
2	
5	
5	
8	
1	
3	
4	
3	
2	
4	
3	
6	
5	
6	
3	
1	
3	
2	
3	
2	
3	
2	
6	
3	
4	
2	
0	
4	
7	
4	
5	
4	
0	
2	
3	
3	
3	
2	
3	
3	
4	
2	
3	
3	
3	
4	
2	
4	
2	
3	
2	
2	
3	
1	
2	
6	
1	
5	
3	
3	
3	
4	
1	
3	
1	
9	
2	
3	
1	
4	
0	
3	
0	
6	
0	
1	
2	
2	
2	
2	
4	
5	
2	
3	
2	
2	
5	
1	
7	
2	
3	
3	
3	
2	
1	
1	
5	
7	
3	
1	
2	
8	
4	
2	
3	
6	
1	
0	
2	
2	
3	
4	
1	
3	
3	
1	
1	
1	
4	
6	
1	
0	
1	
2	
3	
3	
4	
2	
4	
1	
3	
3	
3	
4	
2	
6	
4	
3	
2	
1	
0	
2	
3	
4	
1	
2	
2	
0	
2	
2	
1	
0	
5	
5	
4	
6	
2	
2	
3	
3	
4	
8	
4	
2	
3	
5	
0	
0	
3	
3	
2	
5	
1	
2	
3	
3	
3	
0	
1	
2	
4	
0	
3	
2	
2	
2	
1	
3	
0	
3	
2	
2	
1	
3	
6	
2	
2	
5	
7	
1	
3	
2	
5	
4	
2	
1	
1	
4	
2	
3	
3	
3	
1	
3	
5	
2	
2	
4	
3	
3	
1	
0	
3	
2	
1	
8	
3	
4	
2	
4	
2	
2	
5	
1	
6	
1	
2	
1	
2	
4	
5	
2	
4	
1	
3	
5	
1	
2	
3	
4	
2	
5	
4	
3	
2	
1	
4	
2	
7	
3	
3	
7	
5	
2	
3	
3	
2	
3	
2	
1	
2	
5	
5	
3	
8	
2	
0	
4	
2	
1	
3	
1	
1	
1	
2	
1	
2	
3	
2	
2	
3	
2	
1	
3	
4	
2	
3	
2	
5	
5	
7	
3	
4	
1	
3	
2	
4	
4	
5	
3	
2	
2	
1	
5	
2	
3	
3	
4	
3	
0	
1	
4	
3	
2	
3	
1	
2	
5	
2	
2	
0	
0	
3	
7	
2	
5	
2	
4	
1	
1	
4	
1	
1	
3	
3	
4	
2	
2	
2	
1	
3	
2	
1	
3	
3	
3	
2	
1	
6	
3	
1	
1	
2	
2	
0	
3	
3	
0	
3	
2	
1	
4	
3	
4	
4	
7	
6	
2	
3	
2	
1	
2	
3	
2	
2	
5	
1	
2	
4	
1	
5	
2	
0	
5	
1	
1	
7	
3	
1	
1	
7	
2	
4	
4	
4	
5	
3	
1	
5	
4	
1	
6	
3	
4	
4	
1	
2	
1	
4	
4	
4	
4	
2	
2	
6	
4	
3	
1	
3	
2	
2	
5	
2	
4	
2	
2	
3	
1	
2	
2	
2	
1	
4	
1	
1	
1	
3	
0	
4	
1	
5	
0	
3	
2	
2	
2	
3	
4	
2	
6	
1	
6	
2	
7	
2	
0	
4	
0	
1	
5	
6	
3	
3	
3	
1	
3	
1	
5	
4	
4	
2	
3	
4	
3	
2	
2	
3	
2	
2	
7	
6	
5	
3	
4	
3	
1	
3	
6	
3	
4	
1	
2	
3	
3	
2	
5	
3	
1	
4	
0	
1	
0	
3	
5	
3	
3	
3	
3	
1	
3	
5	
1	
3	
1	
5	
0	
2	
3	
2	
5	
1	
0	
3	
2	
4	
0	
1	
4	
5	
3	
3	
4	
1	
1	
0	
0	
0	
2	
2	
2	
2	
3	
2	
0	
5	
0	
7	
4	
3	
2	
2	
2	
3	
4	
3	
1	
3	
2	
2	
2	
5	
3	
2	
0	
2	
3	
2	
4	
2	
2	
3	
3	
4	
1	
1	
1	
3	
2	
3	
4	
2	
0	
4	
0	
2	
1	
2	
3	
1	
2	
0	
1	
2	
6	
0	
1	
3	
2	
3	
2	
1	
7	
3	
3	
1	
1	
0	
4	
3	
3	
1	
2	
4	
3	
4	
0	
0	
1	
2	
1	
2	
2	
1	
3	
4	
3	
2	
3	
5	
5	
0	
4	
2	
0	
1	
1	
0	
3	
2	
2	
1	
1	
4	
3	
5	
3	
1	
3	
3	
1	
5	
2	
5	
1	
3	
0	
2	
4	
3	
2	
4	
2	
1	
2	
3	
3	
2	
3	
4	
2	
1	
0	
1	
4	
2	
0	
4	
3	
1	
1	
5	
1	
5	
2	
1	
3	
2	
1	
3	
3	
0	
1	
2	
2	
1	
7	
1	
2	
4	
1	
2	
5	
1	
5	
4	
3	
1	
3	
3	
5	
0	
2	
1	
6	
0	
2	
1	
3	
2	
2	
3	
3	
4	
1	
5	
6	
1	
3	
2	
1	
1	
4	
1	
4	
0	
4	
7	
2	
3	
2	
5	
2	
1	
0	
2	
2	
3	
2	
2	
2	
4	
0	
5	
3	
1	
1	
0	
2	
3	
3	
4	
1	
3	
3	
4	
1	
2	
6	
2	
2	
4	
1	
2	
3	
3	
0	
1	
4	
5	
4	
1	
4	
3	
3	
3	
1	
2	
1	
1	
1	
3	
2	
3	
4	
0	
1	
0	
2	
3	
0	
1	
1	
3	
2	
1	
2	
4	
2	
2	
3	
1	
4	
1	
2	
4	
3	
2	
1	
1	
4	
2	
0	
3	
3	
2	
2	
3	
0	
2	
4	
5	
1	
2	
2	
1	
6	
4	
4	
5	
2	
3	
2	
3	
2	
1	
1	
0	
3	
3	
3	
3	
2	
2	
1	
2	
4	
1	
3	
3	
0	
1	
2	
2	
2	
3	
3	
2	
3	
1	
5	
0	
3	
1	
3	
2	
6	
1	
6	
2	
1	
6	
0	
0	
2	
1	
0	
2	
1	
0	
2	
3	
1	
0	
1	
5	
1	
2	
2	
3	
2	
3	
4	
5	
2	
3	
2	
3	
1	
2	
0	
0	
0	
4	
3	
3	
2	
6	
3	
0	
5	
1	
6	
1	
4	
1	
5	
5	
4	
6	
2	
2	
2	
3	
1	
2	
1	
3	
2	
1	
1	
4	
4	
2	
3	
4	
3	
2	
2	
3	
6	
1	
2	
5	
4	
3	
2	
2	
6	
0	
4	
0	
2	
5	
2	
4	
0	
6	
3	
2	
4	
3	
2	
2	
2	
3	
3	
2	
2	
3	
5	
5	
3	
2	
3	
2	
6	
1	
2	
2	
1	
2	
3	
3	
2	
2	
0	
4	
3	
5	
2	
2	
6	
1	
3	
0	
2	
0	
1	
1	
3	
2	
0	
4	
3	
5	
5	
2	
4	
5	
4	
3	
3	
1	
3	
1	
4	
3	
0	
1	
3	
3	
4	
2	
2	
2	
2	
4	
0	
5	
2	
3	
2	
1	
2	
0	
1	
3	
2	
3	
3	
3	
1	
4	
1	
2	
3	
1	
1	
3	
3	
5	
1	
3	
3	
2	
2	
0	
1	
2	
2	
1	
0	
4	
2	
3	
1	
2	
3	
1	
3	
2	
3	
4	
1	
4	
0	
1	
3	
2	
2	
3	
0	
1	
3	
4	
4	
1	
0	
2	
0	
3	
3	
2	
3	
3	
2	
1	
1	
1	
0	
2	
4	
3	
1	
3	
1	
3	
4	
1	
1	
1	
2	
5	
3	
1	
1	
3	
3	
2	
1	
1	
1	
5	
1	
3	
2	
3	
2	
4	
0	
1	
4	
2	
0	
0	
2	
1	
1	
1	
1	
2	
0	
2	
2	
1	
2	
6	
1	
4	
0	
3	
2	
3	
1	
1	
0	
0	
2	
3	
3	
1	
4	
0	
2	
2	
1	
3	
1	
1	
1	
2	
2	
2	
2	
1	
2	
3	
3	
2	
1	
4	
2	
1	
2	
2	
4	
1	
2	
4	
3	
2	
2	
1	
5	
5	
1	
0	
2	
4	
1	
1	
2	
1	
5	
2	
3	
1	
3	
3	
2	
1	
3	
1	
1	
0	
0	
1	
1	
1	
1	
4	
2	
6	
3	
0	
1	
0	
1	
1	
1	
0	
4	
0	
1	
2	
2	
1	
0	
3	
2	
1	
3	
1	
3	
1	
1	
2	
2	
1	
1	
3	
2	
0	
4	
0	
2	
5	
2	
5	
0	
5	
1	
3	
1	
1	
3	
1	
2	
0	
1	
4	
1	
4	
2	
4	
2	
3	
4	
2	
5	
2	
2	
2	
5	
2	
0	
4	
0	
3	
0	
1	
4	
1	
1	
2	
5	
0	
3	
