#PicoHarp 300  Histogram Data			03/28/2023 12:14:22 PM
#channels per curve
15625
#display curve no.
0	1	2	3	
#memory block no.
0	1	2	3	
#ns/channel
0.1280	0.1280	0.1280	0.1280	
#counts
0	0	2	0	
0	0	1	0	
0	1	2	0	
0	0	2	0	
0	0	0	0	
0	0	0	0	
1	0	1	0	
0	0	1	0	
0	1	1	0	
0	0	0	0	
0	1	1	0	
0	0	1	0	
0	0	1	0	
0	1	0	0	
0	0	2	0	
0	0	2	0	
0	0	1	0	
0	0	2	0	
0	0	3	0	
0	0	1	0	
0	1	2	1	
0	0	3	0	
0	0	1	0	
0	0	0	0	
0	0	0	0	
0	1	2	0	
0	0	0	0	
0	0	1	0	
0	0	1	0	
0	0	1	0	
0	0	3	0	
0	0	0	0	
0	0	1	0	
0	0	5	0	
0	0	0	0	
1	0	3	0	
0	0	5	0	
0	0	2	0	
0	0	0	0	
0	0	1	0	
0	0	1	0	
0	0	3	0	
0	0	1	0	
0	0	2	0	
1	0	4	0	
0	0	1	0	
0	0	0	0	
0	1	0	1	
0	2	0	0	
0	0	0	1	
0	1	0	0	
0	1	0	0	
0	0	3	0	
0	1	2	0	
0	0	2	0	
0	0	1	0	
0	1	1	0	
0	1	0	0	
0	0	2	0	
0	0	2	0	
0	1	3	0	
0	1	0	0	
0	0	2	0	
0	0	3	0	
0	0	2	0	
0	0	1	0	
0	1	1	0	
2	2	7	0	
3	2	4	0	
12	9	7	0	
14	22	17	0	
22	29	36	1	
42	44	68	1	
46	61	71	0	
61	75	100	1	
75	68	100	1	
69	89	92	0	
77	92	79	0	
75	90	88	0	
91	79	97	0	
87	91	87	0	
100	82	76	0	
93	86	61	0	
88	100	64	0	
82	64	74	0	
73	74	65	0	
60	75	70	0	
77	76	47	0	
100	83	61	4	
74	63	47	0	
79	77	64	0	
76	74	57	1	
88	66	72	0	
59	62	62	0	
63	87	65	0	
85	84	47	0	
82	66	47	0	
69	70	44	0	
49	58	40	0	
63	60	59	0	
53	57	53	0	
71	69	49	1	
74	68	48	1	
84	52	41	0	
57	48	40	0	
70	55	45	0	
53	55	50	0	
60	56	57	0	
62	68	46	1	
73	61	47	1	
53	52	37	0	
62	56	45	0	
69	62	33	0	
38	48	34	0	
55	55	41	0	
62	49	55	0	
49	59	42	0	
66	43	35	0	
46	51	49	0	
46	57	29	0	
68	50	42	0	
55	43	34	0	
62	62	40	0	
49	53	36	0	
65	51	28	0	
48	48	54	0	
60	57	37	0	
52	47	38	0	
50	48	47	0	
60	46	35	0	
51	60	39	0	
41	43	41	0	
56	42	33	0	
42	57	43	0	
63	66	44	0	
45	41	30	0	
46	46	30	0	
52	49	38	0	
43	52	39	0	
59	37	39	0	
46	44	38	0	
37	52	42	0	
49	37	24	0	
50	51	33	0	
57	44	33	0	
46	42	44	0	
41	48	33	0	
46	45	39	0	
41	36	35	0	
40	50	34	0	
40	47	32	0	
43	52	32	0	
44	38	42	1	
38	43	39	0	
42	28	40	0	
37	39	28	0	
39	38	32	0	
56	48	43	0	
45	42	32	0	
31	39	31	0	
54	38	24	0	
56	45	35	0	
42	24	28	0	
49	39	32	0	
35	36	36	0	
43	35	34	0	
30	35	38	0	
46	51	33	0	
46	41	22	0	
43	37	19	0	
39	34	34	0	
45	32	34	0	
43	51	32	0	
41	32	28	0	
34	39	16	0	
36	42	34	0	
39	39	24	0	
34	30	35	0	
45	30	24	0	
37	45	25	0	
42	43	26	0	
45	34	33	0	
38	31	25	0	
30	48	32	0	
49	36	31	0	
42	36	31	0	
37	36	25	0	
33	37	25	0	
35	32	19	0	
36	41	33	0	
34	39	22	0	
45	41	23	0	
35	49	32	0	
48	31	25	0	
36	41	29	0	
36	28	25	0	
32	41	26	0	
35	26	31	0	
41	44	23	0	
30	28	24	1	
38	38	28	0	
50	29	30	0	
43	28	27	0	
25	31	24	0	
42	26	20	0	
41	33	25	0	
28	39	33	0	
33	30	26	0	
25	32	26	0	
35	30	27	0	
37	34	30	0	
31	24	22	0	
42	34	32	0	
42	27	21	1	
38	41	22	0	
35	29	21	0	
28	26	24	0	
35	34	28	0	
39	31	21	0	
41	26	20	0	
40	35	26	0	
25	31	26	0	
34	27	28	0	
32	25	27	0	
49	29	21	0	
19	29	22	0	
38	32	19	0	
35	37	24	0	
30	25	25	0	
33	26	25	0	
30	24	28	0	
33	32	19	0	
24	29	32	0	
23	31	29	0	
32	28	23	0	
32	26	24	0	
43	30	33	0	
35	29	21	0	
30	29	23	0	
26	36	28	0	
30	18	23	0	
30	26	20	0	
37	30	33	1	
34	19	24	0	
28	37	16	0	
24	28	27	0	
32	31	22	0	
36	25	23	0	
33	31	17	0	
41	30	13	0	
37	36	15	0	
33	34	16	0	
30	22	17	0	
37	35	25	0	
29	26	24	0	
25	23	22	0	
31	31	21	0	
17	26	24	1	
28	21	17	0	
34	25	21	0	
32	32	19	0	
27	27	23	0	
23	39	19	0	
22	25	16	0	
27	33	23	0	
34	39	20	0	
28	27	20	0	
31	29	20	0	
32	28	26	0	
26	23	17	0	
20	25	22	0	
28	29	25	0	
34	21	20	0	
23	24	25	0	
23	24	21	0	
27	24	17	1	
20	32	18	0	
24	16	20	0	
30	29	23	0	
32	26	19	0	
24	24	16	0	
22	26	23	0	
31	30	28	0	
27	21	21	0	
23	19	33	0	
38	25	25	0	
29	26	29	0	
34	24	17	0	
28	30	24	0	
30	16	10	0	
19	24	15	0	
20	19	19	0	
23	26	18	0	
29	26	16	0	
22	29	21	0	
34	21	19	0	
23	20	30	0	
27	19	12	0	
32	32	18	0	
35	33	12	0	
34	21	13	0	
24	18	18	0	
27	16	22	1	
19	19	17	0	
24	30	22	0	
24	18	16	0	
28	16	19	0	
25	24	8	0	
26	19	17	0	
30	19	21	0	
24	20	22	1	
25	27	12	0	
30	28	17	0	
27	23	22	0	
24	16	17	0	
26	26	15	0	
20	19	23	0	
26	21	24	0	
35	17	13	0	
32	22	22	0	
24	21	15	0	
29	22	24	0	
20	25	22	0	
26	16	17	0	
24	30	18	0	
30	21	12	0	
30	18	16	0	
28	25	11	0	
31	15	11	0	
16	20	18	1	
27	17	18	0	
29	23	12	0	
26	25	17	0	
20	22	19	0	
26	19	19	0	
26	22	12	0	
26	17	15	0	
26	20	20	0	
28	18	8	0	
25	19	21	0	
28	20	15	1	
21	21	10	0	
22	16	9	0	
23	23	14	0	
30	17	19	0	
22	21	21	0	
19	21	15	0	
24	19	16	2	
25	27	10	0	
18	22	16	1	
31	21	15	0	
24	13	8	0	
28	21	8	0	
14	27	15	0	
25	17	16	0	
27	19	18	0	
18	20	20	0	
28	16	17	0	
26	24	15	0	
23	18	13	0	
31	13	18	0	
20	14	14	0	
21	27	9	0	
25	24	20	0	
21	26	17	0	
30	24	16	0	
16	13	19	1	
23	12	16	0	
17	19	19	0	
24	20	15	1	
15	12	15	0	
20	26	13	1	
17	20	17	0	
20	22	16	0	
23	35	19	0	
22	11	19	0	
21	11	17	0	
13	24	13	0	
14	23	7	0	
24	12	19	1	
24	16	19	0	
24	16	12	0	
22	15	12	0	
24	28	15	0	
15	18	16	0	
23	18	12	1	
16	18	12	0	
22	24	13	0	
21	16	6	0	
21	12	9	0	
17	14	9	0	
24	12	15	0	
21	21	16	0	
22	20	14	0	
22	17	18	0	
21	11	8	0	
15	18	18	0	
16	16	12	0	
21	14	11	0	
28	26	16	0	
12	17	20	0	
22	22	9	0	
21	14	20	1	
19	14	12	0	
23	21	14	0	
14	11	17	0	
28	15	20	0	
25	6	20	0	
18	11	10	0	
27	9	14	0	
23	15	13	0	
20	25	11	0	
13	12	18	1	
20	19	17	0	
22	18	16	0	
17	11	8	0	
27	13	14	0	
23	15	9	0	
19	10	12	0	
21	16	15	0	
16	13	16	0	
19	25	8	0	
31	14	7	0	
15	15	9	0	
21	14	9	0	
19	13	21	1	
19	22	10	0	
18	16	15	0	
15	22	13	0	
17	14	8	0	
14	20	14	0	
28	10	13	0	
30	10	12	0	
27	17	12	1	
26	10	22	0	
21	19	11	1	
16	16	14	0	
21	26	15	0	
18	13	15	0	
16	16	17	0	
15	25	15	0	
25	15	10	0	
21	14	14	0	
25	22	6	0	
13	12	16	0	
32	14	11	0	
16	22	9	0	
21	15	14	0	
16	9	10	0	
18	13	7	0	
25	22	9	0	
21	20	9	0	
20	17	10	0	
12	15	12	0	
11	17	12	0	
18	10	8	0	
23	23	14	0	
24	18	7	0	
19	15	6	0	
19	17	10	0	
18	12	9	0	
17	23	12	0	
22	16	12	0	
19	14	11	0	
16	17	11	0	
16	14	8	0	
12	10	7	0	
12	13	17	0	
20	17	10	0	
16	13	11	0	
15	15	7	1	
18	13	6	0	
22	21	9	0	
20	23	13	0	
23	11	12	0	
16	10	12	0	
15	10	13	0	
24	15	11	0	
18	18	10	0	
18	10	9	0	
16	8	14	0	
15	16	10	0	
12	10	12	0	
10	16	10	0	
15	16	10	0	
22	17	11	0	
13	9	6	0	
11	12	5	1	
22	12	12	0	
14	12	11	0	
17	21	7	0	
19	12	7	0	
19	11	12	0	
20	14	12	0	
9	14	9	0	
18	14	8	0	
21	13	10	0	
18	15	5	0	
14	22	5	0	
17	9	12	0	
15	17	9	0	
11	16	7	1	
15	10	9	0	
18	9	7	0	
14	13	9	0	
15	18	9	0	
16	12	14	0	
12	12	6	0	
14	12	9	0	
18	16	7	0	
23	11	9	0	
13	12	10	0	
13	13	9	0	
18	14	12	0	
18	13	12	0	
13	19	7	0	
17	15	13	0	
13	16	6	0	
20	6	10	0	
19	9	11	0	
21	11	10	0	
19	9	9	0	
13	17	11	0	
17	22	11	0	
16	11	8	0	
13	18	12	0	
23	16	4	0	
14	14	8	0	
22	11	9	0	
14	11	6	0	
20	12	7	0	
9	12	13	0	
13	15	9	0	
12	15	11	0	
12	12	13	0	
14	10	18	0	
17	19	9	0	
11	18	16	0	
16	13	5	0	
7	14	10	0	
15	15	5	0	
16	8	6	0	
10	9	10	1	
4	13	12	0	
18	17	8	0	
17	18	8	0	
14	15	7	0	
7	14	9	0	
12	11	10	0	
15	15	11	0	
23	13	10	0	
14	8	13	0	
12	16	9	0	
15	14	5	0	
17	7	10	0	
10	8	7	0	
14	11	12	0	
11	6	5	0	
12	13	5	0	
17	5	10	0	
12	16	8	0	
11	12	12	0	
12	8	8	0	
11	7	10	0	
12	12	11	0	
17	9	7	0	
20	10	8	2	
17	17	8	0	
13	10	6	0	
19	13	9	0	
13	14	7	0	
12	15	8	0	
12	10	10	0	
20	13	7	0	
18	10	9	0	
23	13	10	0	
14	12	7	0	
8	12	8	0	
17	15	9	0	
13	8	10	0	
14	10	8	0	
7	6	6	0	
11	12	7	0	
11	9	7	0	
13	13	8	0	
13	10	16	0	
14	17	7	0	
12	7	10	0	
16	11	5	0	
9	12	10	0	
9	7	4	0	
11	12	10	0	
10	7	5	0	
13	19	9	0	
18	7	12	0	
12	10	13	0	
9	8	6	0	
17	16	10	0	
14	11	10	0	
19	16	5	0	
12	12	13	0	
10	8	8	0	
13	18	5	0	
15	10	9	0	
10	8	10	0	
12	12	9	0	
10	15	12	0	
17	12	12	0	
24	9	7	0	
12	14	7	0	
9	11	9	0	
8	8	8	0	
12	5	7	0	
9	11	10	0	
17	16	2	0	
10	11	7	0	
13	16	5	0	
5	9	6	0	
11	15	8	0	
17	7	7	0	
9	7	8	0	
9	9	8	0	
15	14	12	1	
17	13	11	0	
11	19	7	0	
10	14	10	0	
10	8	10	0	
12	10	6	0	
14	5	6	0	
16	7	3	0	
10	13	7	0	
17	8	5	0	
16	12	4	0	
11	11	9	0	
11	7	7	0	
9	8	8	0	
10	12	8	0	
8	12	12	0	
13	8	9	0	
9	13	9	0	
9	8	9	1	
8	13	3	0	
15	9	8	0	
12	7	5	0	
9	8	4	0	
5	11	11	0	
14	11	10	0	
13	4	4	0	
10	10	6	0	
13	12	7	0	
12	10	6	0	
11	10	6	0	
13	8	8	0	
14	10	7	0	
16	8	2	0	
13	6	8	0	
15	11	6	0	
8	10	6	0	
19	12	8	0	
3	13	8	0	
17	8	12	1	
15	8	14	0	
9	15	5	0	
15	4	11	0	
13	12	7	0	
14	10	6	1	
10	7	13	0	
11	5	7	0	
14	11	3	0	
6	12	13	0	
14	13	0	0	
8	6	7	0	
14	13	4	0	
7	7	9	0	
8	4	4	0	
16	10	8	0	
11	14	8	0	
10	8	6	0	
7	8	5	0	
8	10	3	0	
9	10	6	0	
7	1	10	0	
9	5	5	0	
10	6	6	0	
16	13	4	1	
7	8	8	0	
12	15	11	0	
13	13	5	0	
9	5	14	0	
17	10	5	0	
8	3	5	1	
17	8	7	0	
11	6	5	0	
13	7	11	0	
6	3	7	0	
18	10	8	0	
11	7	7	0	
13	13	6	0	
5	5	5	0	
12	7	5	0	
9	10	8	0	
9	5	7	0	
8	10	7	0	
11	8	10	0	
9	11	3	0	
12	10	6	0	
13	7	7	0	
7	7	1	0	
9	4	8	0	
7	10	5	0	
8	9	7	0	
20	11	6	0	
10	8	6	0	
11	8	13	0	
16	20	9	0	
11	12	10	0	
17	3	7	0	
8	11	8	0	
9	13	6	1	
10	10	6	0	
7	7	6	0	
10	10	7	1	
8	7	8	1	
10	8	5	0	
13	10	8	0	
9	15	3	0	
6	8	4	0	
15	5	7	0	
10	10	2	0	
7	11	7	0	
10	16	7	0	
11	13	7	0	
10	10	7	0	
9	12	7	0	
6	7	7	0	
14	11	6	0	
13	10	6	0	
10	16	9	0	
13	12	7	0	
12	6	5	0	
12	17	7	0	
7	7	5	0	
16	7	5	0	
10	7	3	0	
12	9	14	0	
7	7	2	0	
13	10	3	0	
10	10	7	0	
14	13	5	0	
6	6	3	0	
10	11	9	0	
16	13	5	0	
11	9	8	0	
10	9	6	0	
12	8	4	0	
8	2	6	0	
8	8	1	0	
4	4	5	0	
7	6	7	0	
9	7	6	0	
9	13	8	0	
6	9	9	0	
5	4	7	0	
8	9	6	0	
7	9	7	0	
7	10	4	0	
6	10	5	1	
6	9	7	0	
17	9	6	0	
6	4	4	0	
8	10	8	0	
15	7	6	0	
8	5	5	0	
18	9	8	0	
8	6	4	0	
7	4	6	0	
10	11	7	0	
10	9	4	0	
9	8	8	0	
12	9	7	1	
9	8	5	0	
10	10	4	0	
7	12	4	0	
10	8	8	0	
8	6	5	0	
11	12	6	0	
9	7	8	0	
8	14	4	0	
10	7	4	0	
7	5	4	1	
7	8	6	0	
6	8	5	0	
10	5	6	0	
6	10	4	0	
11	7	3	0	
11	9	9	0	
19	4	3	0	
10	6	7	0	
8	6	2	0	
12	6	5	0	
12	4	5	0	
7	9	2	0	
12	7	6	0	
4	4	5	0	
4	14	5	0	
10	9	8	0	
5	8	11	0	
7	7	9	0	
7	6	5	1	
10	12	5	0	
11	4	8	0	
7	6	5	0	
10	13	4	0	
10	12	5	0	
5	8	7	0	
10	6	6	0	
5	9	5	0	
10	6	6	0	
9	8	7	0	
7	10	3	0	
9	4	4	0	
11	3	8	0	
8	8	4	0	
8	4	4	0	
6	10	5	1	
10	8	7	0	
10	8	6	0	
7	8	6	0	
7	4	4	0	
15	8	4	0	
5	5	5	0	
13	8	6	0	
9	9	4	0	
14	9	7	0	
11	10	9	0	
15	8	4	0	
15	9	9	0	
12	5	5	0	
8	4	3	0	
6	8	6	0	
9	10	7	0	
5	5	7	0	
13	9	4	0	
14	5	11	0	
12	7	6	0	
6	8	6	0	
6	4	10	0	
14	9	8	0	
14	8	3	0	
7	8	3	0	
11	6	8	0	
14	10	6	0	
10	5	3	0	
9	8	2	1	
10	5	4	1	
12	2	5	0	
8	3	8	0	
7	6	4	0	
4	5	7	0	
7	5	5	0	
8	4	3	0	
5	7	8	0	
17	10	4	0	
10	5	2	0	
8	10	4	0	
2	8	5	0	
9	4	2	0	
10	4	1	0	
11	8	2	0	
5	10	5	0	
8	13	2	0	
5	6	9	0	
11	9	7	1	
5	6	2	1	
9	1	7	0	
13	7	4	0	
11	5	5	1	
15	0	9	0	
3	7	4	0	
13	5	6	0	
9	7	7	0	
12	7	5	0	
8	7	3	0	
10	5	6	0	
5	7	4	0	
1	7	3	0	
13	5	4	0	
8	8	6	0	
7	8	1	0	
8	5	2	0	
3	8	4	0	
5	3	7	0	
11	3	6	0	
7	4	3	0	
5	7	4	0	
12	5	5	0	
6	7	2	0	
14	5	9	0	
3	4	4	0	
7	9	6	0	
9	3	4	0	
7	3	8	0	
7	9	6	0	
13	9	2	0	
7	9	3	0	
10	5	2	0	
9	11	6	1	
12	2	4	1	
7	1	2	0	
7	4	2	0	
11	5	3	0	
10	2	1	1	
14	5	1	0	
11	6	6	0	
9	6	9	0	
5	3	3	0	
12	5	5	0	
6	6	4	0	
7	8	4	0	
7	9	7	0	
9	8	8	1	
10	5	4	0	
10	4	4	1	
2	5	3	0	
13	11	5	0	
4	7	5	0	
13	5	3	0	
6	8	5	0	
9	6	5	0	
8	6	5	0	
4	11	5	1	
1	5	2	0	
10	8	4	0	
6	4	5	0	
10	7	1	0	
7	6	7	0	
6	6	4	0	
6	4	4	0	
10	4	6	0	
6	5	4	0	
7	4	3	0	
9	7	4	0	
6	4	9	0	
7	4	9	0	
3	7	8	0	
7	4	5	0	
7	1	4	0	
7	9	5	0	
9	10	7	0	
8	7	5	0	
11	10	1	0	
6	5	3	0	
7	4	5	0	
2	7	5	0	
4	6	5	0	
10	11	4	0	
10	9	6	0	
11	5	5	0	
4	7	6	0	
5	5	10	0	
8	5	6	0	
12	6	7	0	
5	7	2	0	
6	10	3	0	
10	6	4	0	
7	9	6	0	
5	5	6	0	
5	8	6	0	
4	7	4	0	
6	6	2	0	
8	3	10	0	
14	3	3	0	
7	3	5	0	
8	10	7	0	
7	6	5	0	
10	6	3	0	
6	8	6	0	
8	2	2	0	
8	6	7	0	
16	9	2	0	
5	6	5	0	
8	7	3	0	
11	6	5	0	
3	2	8	0	
14	3	5	0	
5	6	6	0	
10	4	10	0	
8	2	6	0	
8	3	5	0	
3	7	3	0	
8	2	2	0	
5	6	4	0	
8	4	4	0	
6	8	7	0	
3	10	8	0	
6	7	4	0	
5	6	6	0	
5	6	6	0	
6	6	5	0	
6	4	0	0	
7	6	3	0	
7	4	2	0	
12	6	1	0	
7	3	4	0	
6	9	5	0	
7	4	3	0	
7	5	4	0	
11	6	6	0	
7	9	11	0	
5	7	6	0	
7	8	6	0	
3	6	4	1	
9	7	7	0	
5	6	3	0	
9	5	2	0	
9	8	5	0	
7	7	6	0	
9	7	2	0	
7	4	4	0	
10	3	3	0	
4	5	3	0	
12	6	3	0	
8	6	2	0	
4	5	1	0	
1	8	6	0	
6	4	3	0	
10	2	5	0	
10	1	5	0	
4	7	2	0	
9	5	2	0	
2	4	2	0	
7	4	5	0	
6	10	2	0	
11	6	6	0	
8	7	4	0	
2	4	5	0	
6	5	3	0	
6	4	6	0	
3	8	2	0	
12	5	5	0	
10	5	9	0	
8	7	2	0	
5	7	4	0	
8	4	3	0	
4	9	4	0	
5	5	7	0	
3	2	10	0	
5	4	5	0	
5	6	0	0	
7	4	3	0	
3	4	4	0	
7	3	4	0	
7	11	7	0	
5	6	1	0	
8	4	7	0	
9	9	5	0	
5	9	2	0	
6	7	2	0	
13	4	2	0	
7	2	2	0	
5	3	1	0	
10	4	7	0	
9	2	2	0	
6	3	4	0	
9	4	7	0	
3	3	5	0	
9	4	5	0	
3	2	2	0	
7	4	9	0	
9	6	9	0	
6	5	2	0	
2	5	7	1	
3	8	7	0	
6	4	8	2	
12	4	5	0	
8	8	2	0	
8	8	5	0	
1	10	5	1	
10	3	5	0	
2	6	3	0	
2	5	3	0	
5	0	3	0	
6	5	4	0	
5	5	3	0	
6	5	6	0	
9	5	7	0	
5	3	3	0	
5	7	7	0	
5	3	2	0	
7	6	7	0	
6	2	4	1	
4	5	4	0	
7	2	6	0	
8	6	3	0	
10	8	1	0	
5	4	6	0	
7	1	3	0	
3	4	2	0	
6	7	8	0	
8	3	4	0	
5	7	4	0	
4	5	5	0	
12	1	7	0	
4	2	6	0	
1	6	2	0	
7	5	5	0	
3	7	4	0	
6	7	4	0	
6	7	3	0	
5	6	1	0	
4	3	4	0	
4	3	3	0	
5	4	4	0	
8	6	7	0	
5	2	3	0	
8	4	1	0	
4	10	6	0	
9	5	4	0	
4	2	7	0	
5	2	5	0	
6	4	2	0	
4	4	0	0	
9	1	4	0	
8	2	3	0	
2	4	2	0	
6	7	4	0	
6	7	6	0	
5	4	8	0	
6	6	2	0	
4	2	3	0	
6	2	6	0	
9	4	1	0	
7	5	2	0	
5	2	4	0	
6	2	3	0	
5	7	4	0	
5	4	5	1	
5	6	5	0	
3	9	4	0	
5	0	3	0	
6	5	2	0	
13	6	3	0	
7	3	2	0	
5	1	1	0	
3	3	3	0	
1	7	2	0	
6	4	3	0	
7	5	2	0	
6	6	8	0	
9	2	6	0	
4	2	6	0	
9	10	4	0	
7	3	5	0	
4	5	2	0	
9	6	3	0	
3	3	6	0	
6	5	8	0	
5	5	2	0	
3	4	3	0	
3	2	5	0	
12	5	8	0	
5	8	6	0	
5	9	6	0	
6	3	3	0	
5	1	2	0	
4	4	4	0	
0	7	9	0	
6	2	3	0	
8	4	5	0	
11	1	3	0	
6	3	2	0	
5	4	5	0	
8	6	5	0	
3	6	1	0	
3	8	6	0	
9	5	2	0	
8	6	5	0	
2	3	3	0	
8	3	7	0	
10	4	2	0	
8	3	2	0	
5	3	7	1	
5	7	7	0	
8	4	2	0	
3	6	2	0	
8	6	1	0	
6	0	2	0	
8	2	6	0	
9	7	3	1	
9	3	3	0	
3	3	3	0	
5	4	3	0	
3	6	7	0	
4	3	3	0	
6	5	4	0	
5	1	5	0	
4	1	3	0	
4	3	3	1	
6	3	5	0	
1	6	2	0	
4	6	1	0	
7	7	2	0	
4	2	2	0	
3	5	2	0	
7	5	5	0	
6	3	4	0	
9	3	4	0	
8	6	4	0	
5	2	5	0	
3	4	6	0	
7	5	4	0	
6	3	3	0	
1	9	2	0	
6	2	5	0	
2	5	0	0	
3	3	6	0	
4	1	2	0	
6	4	5	0	
10	2	1	0	
2	6	3	0	
2	3	4	0	
4	3	5	0	
5	1	4	0	
3	4	1	0	
4	2	4	0	
7	3	0	0	
2	5	4	0	
3	5	6	0	
6	5	4	0	
4	5	3	0	
2	6	2	0	
8	3	2	0	
6	1	3	0	
6	2	1	0	
4	3	5	0	
3	2	3	0	
7	5	1	0	
6	3	5	0	
4	9	4	0	
2	5	0	0	
6	6	6	0	
13	2	4	0	
7	5	1	0	
6	3	3	0	
4	1	2	0	
3	7	3	0	
1	5	2	0	
2	5	5	0	
3	4	2	0	
2	5	1	0	
2	8	8	0	
5	2	3	0	
11	3	3	0	
6	5	2	0	
5	3	8	0	
7	2	1	0	
5	4	3	0	
4	6	7	0	
9	2	5	0	
9	2	8	0	
3	5	2	0	
4	7	3	0	
7	7	8	0	
3	2	5	0	
5	0	5	0	
3	4	9	0	
6	3	5	0	
6	5	3	0	
7	2	8	0	
7	3	5	0	
4	5	4	0	
4	6	4	0	
5	2	3	0	
3	2	2	0	
3	6	4	0	
6	5	3	0	
10	4	3	0	
10	1	4	0	
5	3	1	0	
6	3	2	0	
7	3	4	0	
5	3	0	0	
3	5	4	0	
3	4	3	0	
3	2	5	0	
8	3	4	0	
4	6	6	0	
9	4	6	0	
3	1	6	0	
7	7	1	0	
5	9	6	0	
7	5	3	0	
5	6	4	0	
4	3	6	0	
4	4	5	0	
7	7	5	0	
4	1	3	0	
0	5	5	0	
7	4	1	0	
3	9	6	0	
2	8	7	0	
7	9	1	1	
5	4	8	0	
12	0	2	0	
4	2	1	0	
4	6	1	0	
9	3	2	0	
3	4	4	0	
3	4	4	0	
5	4	1	0	
6	4	3	0	
8	2	4	0	
8	6	0	0	
5	6	1	0	
4	6	4	0	
3	4	4	0	
6	3	1	0	
8	3	3	0	
7	2	3	0	
4	6	4	0	
6	1	3	2	
5	6	6	0	
5	4	4	0	
5	4	7	0	
4	4	1	0	
5	2	4	0	
4	1	3	0	
2	2	4	0	
4	1	3	0	
10	4	0	0	
3	3	5	0	
7	2	2	0	
6	3	2	0	
11	4	1	0	
5	5	4	0	
1	5	2	0	
2	2	3	0	
2	4	4	0	
7	2	1	0	
3	2	5	0	
7	1	3	0	
10	1	4	0	
9	3	1	0	
7	3	6	0	
5	3	0	0	
3	3	4	0	
2	5	1	0	
6	7	4	0	
9	5	5	0	
7	2	1	0	
2	5	2	0	
6	4	4	1	
6	6	1	0	
1	1	4	0	
7	1	5	0	
3	3	2	0	
3	4	3	0	
8	1	3	0	
7	4	2	0	
6	6	3	0	
6	0	3	0	
2	4	1	0	
6	2	3	0	
7	1	3	0	
7	2	5	0	
0	2	5	0	
6	6	2	0	
4	4	3	0	
2	8	4	0	
3	2	2	0	
3	2	3	0	
4	1	5	0	
4	2	2	0	
8	1	3	0	
8	3	1	0	
4	7	4	0	
6	3	3	0	
3	2	4	0	
4	3	2	0	
6	4	3	0	
4	4	6	0	
4	3	0	0	
2	7	1	0	
7	3	3	0	
6	3	1	0	
2	2	4	0	
5	6	3	0	
5	3	1	0	
5	2	7	0	
4	5	2	0	
6	5	3	0	
5	2	0	0	
5	5	2	0	
4	6	3	0	
2	3	3	0	
7	1	5	0	
4	2	1	0	
4	3	4	0	
4	3	1	0	
4	2	1	0	
5	3	5	0	
6	6	2	0	
7	4	3	0	
10	5	3	0	
3	4	4	0	
3	3	3	0	
10	4	6	0	
4	0	3	0	
2	2	0	0	
6	4	2	0	
1	3	6	0	
3	5	5	0	
7	2	5	0	
1	2	7	0	
2	2	2	0	
5	4	3	0	
3	1	3	0	
5	7	3	0	
5	1	1	0	
4	3	1	0	
3	5	7	0	
4	1	7	0	
4	2	1	1	
6	0	2	0	
4	5	4	0	
7	5	3	0	
5	7	3	0	
3	4	3	0	
3	6	1	0	
5	3	3	0	
2	3	5	0	
3	2	4	1	
2	2	1	0	
6	2	3	0	
2	2	4	0	
4	7	0	0	
5	0	5	0	
5	5	3	0	
5	2	3	0	
1	2	0	0	
1	1	1	0	
7	2	1	1	
7	4	2	0	
3	1	1	0	
6	3	1	0	
3	2	7	0	
2	2	7	0	
3	3	2	0	
2	1	1	0	
4	5	3	0	
4	6	3	0	
6	4	3	1	
7	4	5	0	
3	6	2	0	
7	1	4	0	
2	7	0	0	
4	4	5	0	
3	3	3	0	
7	3	5	0	
5	7	7	0	
4	5	4	0	
7	2	4	0	
9	4	3	0	
1	7	3	0	
3	3	2	0	
4	3	5	0	
8	2	5	0	
4	2	3	0	
4	5	4	0	
4	1	3	0	
3	2	3	0	
3	3	0	0	
7	1	3	1	
3	1	3	0	
4	6	3	0	
2	3	5	0	
3	6	2	0	
4	5	3	0	
2	10	1	0	
3	2	7	0	
4	2	4	0	
4	2	2	0	
7	4	2	0	
2	5	2	0	
8	4	3	0	
5	0	3	0	
3	2	2	1	
5	3	0	0	
1	3	3	0	
1	4	1	0	
5	0	2	0	
2	5	2	0	
4	4	4	0	
6	1	3	0	
7	2	2	0	
5	2	4	0	
12	2	6	0	
2	3	5	0	
6	2	4	0	
6	2	5	0	
5	7	0	0	
4	6	3	0	
8	1	1	0	
5	1	3	0	
4	6	3	0	
4	5	1	0	
2	1	2	0	
2	2	2	0	
5	1	5	0	
6	4	2	0	
5	1	5	0	
3	0	2	0	
5	2	1	0	
6	4	8	0	
5	3	1	0	
3	2	4	0	
7	3	6	1	
4	5	2	0	
3	4	3	0	
4	2	6	0	
7	1	6	0	
4	4	4	0	
2	1	4	0	
3	4	3	0	
8	0	4	0	
3	2	3	0	
4	4	3	0	
8	4	3	0	
5	3	5	0	
2	2	3	0	
5	1	7	1	
3	5	3	0	
3	2	2	0	
4	5	3	0	
5	0	1	0	
1	4	3	0	
2	0	2	0	
3	4	4	0	
5	2	2	0	
4	3	2	0	
3	3	2	0	
4	0	4	0	
2	2	1	0	
8	4	5	0	
6	3	1	0	
5	0	7	0	
4	2	5	0	
7	2	1	0	
4	4	4	0	
5	5	3	0	
2	2	2	0	
3	1	2	0	
1	4	2	0	
2	7	2	0	
4	5	6	0	
2	2	3	0	
8	5	4	0	
2	2	3	0	
6	2	3	0	
2	4	3	0	
2	4	0	0	
4	5	0	0	
2	3	1	0	
4	4	2	0	
4	3	3	0	
5	6	4	0	
3	2	2	0	
1	1	2	0	
1	2	1	0	
3	2	2	0	
7	4	3	0	
1	3	2	0	
3	4	1	0	
7	1	4	0	
5	2	2	0	
3	3	2	0	
5	0	3	0	
5	1	3	0	
6	3	4	0	
5	3	3	0	
7	5	1	0	
3	4	3	0	
2	3	1	0	
0	3	3	0	
0	2	1	0	
3	2	3	0	
1	2	0	0	
5	3	6	0	
4	0	2	0	
4	2	2	0	
4	2	0	0	
4	4	4	0	
2	2	3	0	
4	3	2	0	
4	5	1	0	
5	4	3	0	
3	1	1	0	
2	6	2	0	
3	3	3	0	
7	2	3	0	
4	1	1	0	
6	2	2	0	
5	3	1	0	
2	5	2	0	
7	3	5	0	
2	6	3	0	
5	2	1	0	
1	2	2	0	
4	2	3	0	
5	1	2	1	
1	4	1	0	
5	2	2	0	
4	4	2	0	
4	1	1	0	
5	5	1	0	
3	4	2	0	
4	3	1	0	
0	3	5	0	
3	1	2	0	
1	5	4	0	
6	3	3	0	
5	0	3	0	
5	4	2	0	
4	3	3	0	
3	1	3	0	
3	4	7	0	
2	8	3	0	
3	0	5	0	
7	2	2	0	
5	3	2	0	
3	5	4	0	
5	0	7	0	
2	5	2	0	
5	3	2	0	
6	2	1	0	
1	2	1	1	
8	1	0	0	
1	1	3	0	
3	1	2	0	
2	1	3	0	
7	2	2	0	
4	4	3	0	
2	3	5	0	
7	3	7	0	
6	6	2	0	
3	5	2	0	
5	3	1	0	
5	1	2	0	
4	2	2	0	
3	1	2	0	
4	5	1	0	
2	5	1	0	
4	2	5	0	
5	0	2	0	
5	5	3	0	
4	1	4	0	
2	0	3	0	
3	3	3	0	
1	8	3	0	
5	3	2	0	
5	3	4	0	
3	1	1	0	
2	2	1	0	
3	0	6	0	
2	4	4	0	
2	3	4	0	
4	3	3	0	
8	2	5	0	
10	5	2	0	
4	2	4	1	
6	2	2	0	
2	5	4	0	
1	0	3	0	
8	2	2	0	
2	2	1	0	
2	1	1	0	
4	4	3	0	
8	7	4	0	
5	5	4	0	
3	1	2	0	
4	4	2	0	
1	3	4	0	
6	3	0	0	
3	3	3	0	
3	5	2	0	
4	3	5	0	
3	3	1	0	
1	6	2	0	
4	3	2	0	
3	4	4	0	
0	1	7	0	
0	3	1	0	
3	1	3	0	
1	1	2	0	
0	3	3	0	
4	3	1	0	
6	4	5	0	
6	2	2	0	
1	4	3	0	
4	3	1	0	
3	1	1	0	
3	2	1	0	
3	2	3	0	
4	4	1	0	
6	1	3	0	
5	3	0	0	
6	2	0	0	
5	1	6	0	
4	5	3	0	
2	4	1	0	
2	1	1	0	
4	2	4	0	
7	1	5	0	
6	1	4	0	
4	4	2	0	
5	2	2	0	
2	3	4	0	
3	0	3	0	
2	4	0	0	
4	0	2	0	
2	2	2	0	
4	4	2	0	
1	4	2	0	
2	0	3	0	
6	2	3	0	
3	3	1	0	
2	4	3	0	
4	3	4	0	
6	2	2	0	
2	5	4	0	
4	1	1	0	
6	2	3	0	
3	3	2	0	
1	0	4	0	
0	4	1	0	
2	3	3	0	
2	0	1	0	
5	2	5	0	
1	3	2	0	
3	2	2	1	
1	8	1	0	
4	4	1	0	
3	2	2	0	
2	3	1	0	
4	1	1	0	
3	1	2	0	
7	2	6	0	
4	2	3	0	
2	0	3	0	
4	2	2	0	
2	5	0	0	
2	2	2	0	
2	5	5	0	
5	2	3	0	
4	3	2	0	
1	1	1	0	
3	1	6	0	
2	1	6	1	
5	2	3	0	
6	2	2	0	
1	1	4	1	
3	2	4	0	
4	4	1	0	
2	5	3	0	
2	9	2	0	
2	0	1	0	
0	2	3	0	
5	1	2	0	
4	0	1	0	
5	1	3	0	
5	4	3	0	
2	0	5	0	
6	2	3	0	
2	5	4	0	
7	2	4	0	
3	1	3	0	
2	1	2	0	
4	0	3	0	
2	2	1	0	
4	2	0	0	
2	2	3	0	
1	2	2	0	
4	3	1	0	
5	0	3	0	
0	4	6	0	
4	2	1	1	
2	2	3	0	
2	5	2	0	
3	2	2	0	
4	5	1	0	
6	5	1	0	
5	3	2	0	
3	5	2	0	
3	2	5	0	
2	4	4	0	
1	2	0	0	
0	2	2	0	
4	2	3	0	
1	2	1	0	
6	0	2	0	
1	2	2	0	
3	3	0	0	
3	0	1	0	
4	3	0	0	
2	3	4	0	
2	2	1	0	
1	4	1	0	
4	5	0	0	
2	1	3	0	
2	5	5	0	
3	1	2	0	
5	1	3	0	
0	1	1	0	
1	1	2	0	
4	2	0	0	
2	4	1	0	
1	2	3	0	
3	3	1	0	
0	2	5	0	
4	2	1	0	
4	3	3	1	
5	4	1	0	
2	2	3	0	
3	2	2	0	
0	0	3	0	
2	3	5	0	
5	3	2	0	
6	1	1	0	
1	1	3	0	
7	0	3	0	
4	2	1	0	
3	1	2	0	
6	3	2	0	
0	0	3	0	
1	1	3	0	
2	2	1	0	
2	1	2	0	
3	3	3	0	
4	3	2	0	
1	4	3	0	
3	2	0	0	
3	3	1	0	
3	3	2	0	
2	2	2	0	
6	0	3	0	
2	2	5	0	
2	4	4	0	
6	1	3	0	
3	1	3	0	
2	1	0	0	
5	0	4	0	
2	1	1	0	
4	3	4	0	
3	3	2	0	
1	5	0	0	
4	3	2	1	
2	1	3	0	
4	3	4	0	
9	4	5	1	
6	0	1	0	
4	5	1	0	
1	3	0	0	
2	1	4	0	
1	1	3	0	
3	4	2	0	
5	2	7	0	
2	2	2	0	
1	4	1	0	
2	2	5	0	
4	1	5	0	
5	3	0	0	
3	2	2	0	
4	3	0	0	
3	0	2	0	
6	2	5	0	
1	3	5	0	
5	3	3	0	
0	3	1	0	
3	2	5	0	
8	1	2	0	
1	1	2	0	
10	5	4	0	
6	0	5	0	
2	0	3	0	
1	3	3	0	
1	5	1	0	
4	1	2	0	
2	1	4	0	
3	4	2	0	
6	0	3	0	
3	3	1	0	
1	1	0	1	
3	2	2	0	
1	2	2	0	
4	2	1	0	
2	0	4	0	
4	4	1	0	
6	7	1	0	
6	1	1	0	
1	2	4	1	
2	2	1	0	
3	2	4	0	
3	2	1	0	
4	2	3	0	
4	0	2	0	
4	3	2	1	
5	1	0	0	
5	1	2	0	
2	0	1	0	
8	2	2	0	
3	2	2	0	
0	5	3	0	
2	3	6	0	
1	1	0	0	
1	2	1	0	
4	2	4	0	
0	4	3	1	
4	1	1	0	
2	2	3	0	
4	2	5	0	
4	3	0	0	
4	1	1	0	
2	5	4	0	
4	3	1	0	
1	1	1	0	
3	6	1	0	
2	6	2	0	
1	0	0	0	
5	3	5	0	
6	3	5	1	
2	4	2	0	
2	0	5	0	
5	2	2	0	
2	4	3	0	
2	0	2	0	
4	2	2	0	
1	1	2	0	
4	2	4	0	
4	4	2	0	
4	2	2	0	
2	0	1	0	
0	1	2	0	
3	4	1	0	
2	7	1	1	
0	1	1	0	
3	0	1	0	
4	2	5	0	
2	1	4	0	
2	2	3	0	
2	1	2	0	
0	2	1	0	
3	3	2	1	
5	3	1	0	
3	3	4	0	
2	5	1	0	
0	2	5	0	
4	4	3	0	
1	1	1	0	
1	3	0	0	
3	1	2	0	
0	4	1	0	
2	4	4	0	
4	2	1	0	
2	1	1	0	
6	2	6	0	
0	2	0	0	
3	2	5	0	
1	2	0	0	
5	0	2	0	
4	2	0	0	
2	4	2	0	
2	0	1	0	
5	0	1	0	
2	1	0	0	
2	3	3	0	
2	1	0	0	
3	3	1	0	
0	1	3	0	
2	4	6	0	
7	1	2	0	
2	2	0	0	
2	1	5	0	
6	1	1	0	
4	5	3	0	
2	2	5	0	
2	1	0	0	
5	2	5	0	
6	1	2	0	
1	3	1	0	
1	2	3	0	
3	1	1	0	
3	6	3	0	
4	0	2	0	
1	1	3	0	
4	3	3	0	
7	2	2	0	
1	2	0	0	
3	2	3	0	
3	0	0	0	
1	1	0	0	
2	2	6	0	
1	0	4	0	
4	0	1	1	
3	1	1	0	
4	1	1	0	
7	2	3	0	
4	2	0	0	
2	1	1	0	
0	3	1	0	
2	1	1	0	
2	1	2	0	
0	2	1	0	
3	2	3	0	
2	2	1	0	
3	2	0	0	
2	3	2	0	
3	3	4	0	
5	2	1	0	
1	2	4	0	
1	0	0	0	
4	3	4	0	
4	3	2	0	
0	0	2	0	
1	5	2	0	
0	7	0	0	
1	3	2	0	
5	4	4	0	
4	4	2	0	
3	3	2	0	
2	1	2	0	
4	0	1	0	
8	4	3	0	
1	5	1	0	
1	1	1	0	
2	3	4	0	
1	1	3	0	
4	1	2	0	
2	2	3	0	
4	2	1	0	
4	4	2	0	
3	0	5	0	
2	2	3	0	
1	2	1	0	
3	2	7	0	
7	3	2	0	
3	1	0	0	
1	5	1	0	
4	3	2	0	
2	5	2	0	
3	1	2	0	
2	3	5	0	
2	1	6	0	
1	2	3	1	
3	0	2	0	
2	1	0	0	
2	2	2	0	
3	2	2	0	
1	1	2	0	
5	1	3	0	
3	0	2	0	
3	4	2	0	
2	1	4	0	
2	0	3	0	
4	2	3	0	
2	4	2	0	
0	3	2	0	
2	3	0	0	
3	1	4	0	
0	4	0	0	
5	2	1	0	
3	0	2	0	
4	0	2	0	
8	2	4	0	
1	3	4	0	
2	0	1	0	
1	1	2	0	
2	1	0	0	
1	2	3	0	
2	1	3	0	
1	3	1	0	
3	1	3	1	
0	1	3	0	
4	1	2	1	
3	1	5	0	
4	3	1	0	
1	1	3	0	
3	3	5	0	
2	2	2	0	
3	3	3	0	
3	2	2	0	
5	1	3	0	
5	4	3	0	
2	3	2	0	
1	4	1	0	
2	1	6	0	
2	0	3	0	
3	1	1	0	
3	2	3	0	
2	1	2	0	
4	2	0	0	
4	1	0	0	
2	1	2	0	
3	4	1	0	
2	1	3	0	
5	1	3	0	
4	2	2	0	
3	1	2	0	
5	2	6	0	
3	2	1	0	
3	2	5	0	
4	0	3	0	
4	2	1	0	
3	2	0	0	
2	1	1	0	
2	5	2	0	
4	0	4	0	
2	0	1	0	
1	2	2	0	
1	1	3	0	
2	3	3	0	
4	6	2	0	
0	2	1	0	
3	2	3	1	
2	3	1	0	
4	2	1	0	
3	5	3	0	
2	4	2	0	
2	1	1	0	
1	1	1	0	
5	0	3	0	
4	1	4	0	
0	2	6	0	
1	4	1	0	
2	1	1	1	
1	4	3	0	
5	2	0	0	
1	2	2	0	
1	3	1	0	
5	4	2	0	
0	3	1	0	
0	6	5	0	
6	5	3	0	
0	0	3	0	
3	3	3	0	
2	1	6	0	
5	1	6	0	
2	2	4	0	
1	2	3	0	
4	2	3	0	
2	4	3	0	
2	2	4	0	
1	2	1	0	
4	1	2	0	
1	1	3	0	
3	1	6	0	
5	2	2	0	
0	1	1	0	
2	1	1	0	
1	5	2	0	
2	1	0	0	
2	2	2	0	
0	4	2	0	
3	4	2	0	
1	1	2	0	
3	0	5	0	
1	1	1	0	
2	1	5	0	
3	3	2	0	
1	0	4	0	
4	2	2	0	
3	1	3	0	
3	2	3	0	
0	3	2	0	
0	1	3	0	
2	1	3	0	
0	1	2	0	
4	2	3	0	
2	2	2	0	
5	1	2	0	
1	3	4	0	
5	4	3	0	
3	2	3	0	
4	3	2	0	
4	1	2	0	
2	0	5	0	
2	2	3	0	
3	4	2	0	
2	2	2	0	
3	0	3	0	
2	6	4	0	
3	1	1	0	
6	2	4	0	
1	2	2	0	
1	1	5	0	
6	0	1	0	
1	2	2	0	
3	0	2	0	
2	2	1	1	
0	3	2	0	
2	2	0	0	
5	1	6	0	
2	2	4	0	
1	2	5	0	
2	4	1	0	
1	2	0	0	
1	0	2	0	
3	2	1	0	
2	0	1	1	
3	1	2	0	
1	1	4	0	
4	2	2	1	
0	4	1	0	
2	1	2	0	
2	1	2	0	
6	0	1	0	
8	1	3	0	
3	3	1	0	
5	2	2	0	
1	2	0	0	
4	1	3	0	
7	1	1	0	
2	4	0	0	
0	1	4	0	
0	2	3	0	
6	3	1	0	
4	3	0	0	
2	2	1	0	
2	2	1	2	
4	0	0	0	
0	2	2	0	
7	0	2	0	
4	1	3	0	
1	1	3	0	
3	1	4	0	
1	2	3	0	
1	1	1	0	
4	2	0	0	
1	1	2	0	
4	0	1	0	
0	0	0	0	
1	1	2	0	
2	0	3	0	
1	1	2	0	
4	1	2	0	
1	2	5	0	
2	0	2	0	
3	1	3	0	
2	5	2	0	
0	2	4	0	
2	2	1	0	
4	4	3	0	
6	3	2	0	
1	1	1	0	
1	0	3	0	
5	0	4	0	
5	2	2	0	
1	0	2	0	
2	1	4	0	
1	1	2	0	
6	1	2	1	
0	1	2	0	
0	2	3	0	
3	2	0	0	
3	3	2	0	
2	1	4	0	
3	1	0	0	
3	1	1	0	
5	0	4	0	
1	2	1	0	
2	0	3	1	
2	5	1	0	
0	1	3	0	
2	1	5	0	
1	2	2	0	
3	1	1	0	
4	1	2	0	
5	3	2	0	
3	1	0	0	
4	1	3	0	
2	2	5	0	
4	4	0	0	
2	0	1	1	
1	3	3	0	
2	2	1	0	
3	1	3	0	
1	4	5	0	
3	3	2	0	
3	2	2	0	
2	2	3	0	
4	2	5	0	
3	2	1	0	
2	1	3	0	
3	1	1	0	
3	2	0	0	
1	3	1	0	
5	0	3	0	
6	0	3	0	
1	1	2	0	
2	2	4	0	
3	1	1	0	
3	2	2	0	
1	2	3	0	
4	3	1	0	
2	1	1	0	
2	1	3	0	
3	4	2	0	
3	4	1	0	
2	1	1	0	
2	2	5	0	
2	3	3	0	
2	0	2	0	
2	0	3	0	
3	3	2	0	
0	0	1	0	
0	2	1	0	
0	1	2	0	
0	2	3	0	
5	1	0	0	
3	1	4	0	
1	0	0	0	
2	2	3	0	
3	1	2	0	
2	1	3	0	
5	0	2	0	
2	3	0	0	
2	0	3	0	
3	4	2	0	
0	2	2	0	
3	1	2	0	
1	1	2	0	
8	0	1	0	
2	1	2	0	
1	4	2	0	
1	1	1	0	
3	3	0	0	
2	0	2	0	
4	4	2	0	
1	2	1	0	
1	2	3	0	
1	1	4	0	
1	0	4	0	
4	0	2	0	
2	0	5	0	
0	2	3	0	
1	1	4	0	
5	1	2	0	
2	1	2	0	
5	2	1	0	
1	3	2	0	
4	3	3	0	
2	0	2	0	
7	1	1	0	
2	1	1	0	
1	1	3	0	
5	0	4	0	
5	3	1	0	
4	3	0	0	
2	1	1	0	
0	2	3	0	
3	3	1	0	
3	4	1	0	
4	1	2	1	
2	3	1	0	
3	3	1	0	
6	0	0	0	
0	3	4	0	
3	0	2	0	
4	2	2	0	
2	2	1	0	
0	2	0	0	
0	0	3	0	
1	1	0	0	
1	4	4	0	
2	1	2	0	
1	5	0	0	
1	2	0	0	
1	3	1	0	
2	3	3	0	
3	1	5	0	
2	2	5	0	
5	5	3	0	
2	2	3	0	
3	3	0	0	
2	0	2	0	
3	1	2	0	
2	1	2	0	
4	1	3	0	
1	0	1	0	
5	3	3	0	
1	2	4	0	
2	3	0	0	
1	2	1	0	
1	2	1	0	
2	1	0	0	
5	3	2	0	
1	0	0	0	
0	0	1	0	
2	0	0	0	
3	0	2	0	
2	2	1	0	
5	4	1	0	
1	3	3	0	
1	2	2	0	
1	3	1	0	
3	0	0	0	
1	3	2	0	
1	1	1	0	
2	1	2	0	
1	2	2	0	
3	3	2	0	
1	1	2	0	
1	1	2	0	
0	2	5	0	
0	2	0	0	
2	0	3	0	
2	1	1	0	
1	1	1	0	
5	0	3	0	
1	1	2	0	
4	2	2	0	
3	2	3	0	
2	3	3	0	
2	2	3	0	
0	2	1	0	
1	1	4	0	
6	2	4	0	
3	1	2	0	
0	0	4	1	
4	0	0	0	
2	0	1	0	
4	4	4	0	
1	0	1	0	
0	0	2	0	
1	1	6	0	
2	1	3	0	
3	1	1	0	
2	1	1	0	
1	1	2	0	
5	2	4	0	
1	0	1	0	
0	2	3	0	
4	1	1	1	
1	3	2	0	
4	2	2	0	
3	4	2	0	
1	2	0	0	
3	4	3	0	
4	1	2	0	
2	2	1	0	
3	1	2	0	
0	2	2	0	
5	1	3	0	
2	1	1	0	
0	2	2	0	
1	3	0	0	
1	3	0	0	
1	3	1	0	
1	3	4	0	
4	1	0	0	
1	2	5	1	
1	1	4	0	
5	1	1	0	
0	3	3	0	
2	0	4	1	
0	2	0	0	
5	2	3	0	
2	4	2	0	
0	5	1	0	
1	2	1	0	
3	2	3	0	
3	1	2	0	
2	4	3	0	
2	1	3	0	
1	2	1	0	
2	0	1	1	
4	2	4	0	
1	3	3	0	
2	3	4	0	
1	2	4	0	
1	2	1	0	
1	0	0	0	
3	0	1	0	
2	2	2	0	
1	3	2	0	
3	1	4	0	
2	0	1	0	
4	3	3	0	
1	1	2	0	
4	0	1	0	
1	1	2	0	
1	1	3	0	
2	3	1	0	
2	2	2	0	
2	3	3	0	
4	0	0	0	
1	3	1	0	
3	3	1	0	
2	0	3	0	
2	3	1	0	
0	1	1	0	
3	2	1	1	
2	1	3	0	
3	3	2	0	
3	3	1	0	
5	3	3	0	
1	2	0	0	
1	1	1	0	
1	1	1	0	
2	2	2	0	
1	2	2	0	
1	2	2	0	
1	0	2	0	
0	1	1	0	
3	1	2	0	
0	3	2	0	
3	0	3	1	
1	2	1	0	
4	0	5	0	
2	4	2	0	
2	0	2	0	
0	1	1	0	
2	0	3	0	
1	1	1	0	
3	3	2	1	
1	2	0	0	
1	4	1	0	
3	4	2	0	
2	2	0	0	
4	1	2	0	
2	2	1	1	
3	0	2	0	
2	1	2	0	
2	1	1	0	
0	5	6	0	
2	2	1	0	
2	4	1	0	
0	1	0	0	
3	3	2	0	
4	2	2	0	
1	3	1	0	
3	1	0	0	
2	2	2	0	
2	2	1	0	
3	2	1	0	
1	2	1	0	
3	0	1	0	
5	0	3	0	
1	0	2	0	
0	0	0	0	
3	0	4	0	
1	3	1	0	
1	3	1	0	
3	2	2	0	
2	2	2	0	
4	2	3	0	
1	1	1	0	
0	1	2	0	
2	2	1	0	
0	2	0	0	
2	1	1	0	
2	1	5	0	
2	1	0	0	
3	2	2	0	
3	2	1	0	
2	1	1	0	
0	1	1	0	
2	0	3	0	
3	3	0	1	
1	2	2	0	
3	1	3	0	
1	1	1	0	
2	3	2	0	
1	2	2	0	
0	0	2	0	
2	4	0	0	
2	1	2	0	
5	3	1	0	
2	0	1	0	
0	3	4	0	
3	1	3	0	
1	0	1	0	
3	1	0	1	
2	1	4	0	
2	2	1	0	
0	3	0	0	
1	1	1	1	
2	1	3	0	
0	2	3	0	
0	1	1	0	
3	1	4	0	
3	2	0	0	
2	1	1	0	
3	1	2	1	
3	2	4	0	
0	0	1	0	
1	0	1	0	
3	1	0	0	
2	1	0	0	
1	2	2	0	
2	4	0	1	
0	0	4	0	
1	1	2	0	
1	1	0	0	
2	0	1	0	
1	1	1	0	
2	1	3	1	
1	0	2	0	
0	0	1	0	
2	2	2	0	
2	1	1	0	
1	0	2	0	
4	1	0	0	
1	0	1	0	
1	2	3	0	
5	3	2	0	
5	1	0	0	
0	2	1	0	
2	1	2	0	
2	2	3	0	
1	2	0	0	
3	1	0	0	
3	1	4	0	
3	2	3	0	
2	2	1	0	
3	1	1	0	
3	1	5	0	
1	1	2	0	
0	0	0	0	
1	1	3	0	
3	2	1	0	
6	1	0	0	
1	6	0	0	
4	1	3	0	
0	4	1	0	
1	4	3	0	
2	2	1	1	
4	0	0	0	
3	2	1	1	
1	2	2	0	
3	3	4	0	
0	0	2	0	
1	2	1	0	
2	1	4	0	
2	0	3	0	
3	3	3	0	
2	2	3	0	
2	0	5	0	
1	1	1	0	
2	2	2	0	
0	1	3	0	
1	0	3	0	
2	0	2	0	
2	2	2	0	
0	3	3	0	
2	4	2	0	
0	3	3	0	
3	0	0	0	
5	3	1	0	
3	3	2	0	
0	1	1	0	
1	1	1	0	
2	0	1	0	
3	3	1	0	
1	1	1	1	
1	1	0	0	
3	0	3	0	
6	2	1	1	
0	2	0	0	
0	5	0	0	
2	0	0	0	
0	1	1	0	
4	3	1	0	
0	1	5	0	
1	1	3	0	
3	4	4	0	
3	0	1	0	
1	0	0	0	
1	2	2	0	
0	3	3	1	
0	1	1	0	
2	1	3	0	
6	2	0	0	
1	2	0	0	
1	2	1	0	
1	0	4	0	
4	0	2	0	
1	3	4	0	
0	0	3	0	
0	1	1	0	
0	2	1	0	
3	0	5	0	
2	0	2	0	
1	2	0	1	
1	0	1	0	
2	1	1	0	
1	1	1	0	
0	1	3	0	
1	2	0	0	
0	2	1	0	
1	3	1	0	
0	1	3	0	
1	0	4	0	
2	1	0	0	
2	0	4	0	
2	0	1	0	
1	3	3	0	
3	2	0	0	
3	1	1	0	
0	1	1	0	
0	1	4	0	
2	1	5	0	
1	1	3	0	
1	1	1	0	
3	1	2	0	
3	1	2	0	
3	3	1	0	
2	0	0	0	
6	1	2	0	
2	0	2	0	
2	1	1	0	
1	1	1	0	
4	0	4	0	
0	0	3	0	
2	1	2	0	
3	1	2	0	
1	1	3	0	
3	1	1	0	
1	2	3	0	
1	1	5	0	
0	1	4	0	
4	5	2	0	
1	1	2	0	
0	1	0	0	
4	0	2	0	
2	2	1	0	
0	2	2	0	
2	2	3	0	
2	0	0	0	
1	0	0	0	
1	2	2	0	
1	1	4	0	
0	1	0	0	
0	0	2	0	
1	2	3	0	
3	3	0	0	
3	1	1	0	
2	2	4	0	
1	1	0	0	
2	2	3	0	
1	3	3	0	
1	0	2	0	
1	1	0	0	
2	1	3	0	
2	4	3	0	
1	4	1	0	
1	3	3	0	
2	4	1	0	
3	0	0	0	
1	0	1	0	
0	1	3	0	
3	0	3	0	
1	2	3	1	
4	0	2	0	
0	0	0	1	
2	2	1	0	
3	0	0	0	
1	2	3	0	
3	0	1	0	
1	1	1	0	
3	2	0	0	
0	2	3	0	
2	0	0	0	
1	0	2	0	
2	0	2	1	
2	1	3	0	
2	2	4	0	
3	0	1	0	
0	2	1	1	
5	3	1	0	
0	3	2	0	
0	1	0	1	
1	1	1	0	
3	3	2	0	
1	0	3	0	
1	2	1	0	
3	1	0	0	
3	2	3	0	
3	3	3	0	
1	3	1	0	
2	1	1	0	
1	2	2	0	
1	2	1	0	
2	1	3	0	
5	3	0	0	
0	2	5	0	
1	3	1	0	
1	3	0	0	
1	2	2	0	
1	4	3	1	
1	0	1	0	
1	2	0	0	
4	4	1	0	
3	2	2	0	
1	1	2	0	
1	0	1	0	
1	3	1	0	
2	1	2	0	
2	2	0	0	
2	2	2	0	
2	1	4	0	
2	3	1	0	
1	0	0	0	
3	2	2	0	
0	1	2	0	
0	1	1	0	
5	1	1	0	
2	0	1	0	
2	2	2	0	
2	0	1	0	
0	0	3	0	
2	2	1	0	
3	4	2	0	
2	1	3	0	
1	0	0	1	
3	3	2	0	
2	2	0	0	
5	1	1	0	
1	1	2	0	
2	2	3	0	
2	5	2	0	
5	1	5	0	
0	2	1	0	
3	3	1	0	
2	2	1	0	
2	1	0	0	
3	1	3	0	
2	0	4	0	
1	2	1	0	
0	2	3	0	
5	1	2	0	
1	0	0	0	
2	2	2	0	
1	0	1	0	
2	0	1	1	
0	0	4	0	
2	0	1	0	
0	2	1	0	
2	0	3	0	
2	1	0	0	
0	0	3	0	
1	1	2	0	
2	1	3	1	
1	3	0	0	
2	0	1	0	
0	1	2	0	
2	1	2	0	
1	1	0	0	
2	2	1	1	
2	0	1	0	
1	0	2	0	
1	1	1	0	
1	1	3	0	
1	0	1	0	
1	0	1	0	
3	0	2	0	
2	0	1	0	
2	2	1	0	
0	1	1	0	
2	2	2	0	
1	0	3	0	
1	3	0	0	
1	4	0	0	
0	1	1	0	
1	1	1	0	
1	2	2	0	
5	2	3	1	
1	2	1	0	
0	2	2	0	
1	0	3	0	
2	1	2	0	
1	2	3	0	
0	2	7	0	
3	3	2	0	
4	2	4	0	
1	1	7	0	
1	0	1	0	
1	0	2	0	
0	1	0	0	
0	0	0	0	
0	2	1	0	
2	2	3	0	
0	0	1	0	
0	4	2	0	
4	2	1	0	
0	0	2	0	
2	1	2	0	
1	3	3	0	
1	2	5	0	
0	1	3	0	
1	2	1	0	
2	3	3	0	
0	0	1	0	
4	0	1	0	
2	1	4	0	
0	1	3	0	
0	1	1	0	
0	1	0	0	
1	0	1	0	
1	0	2	0	
0	0	2	0	
3	3	2	0	
2	1	2	0	
0	1	2	0	
3	1	1	0	
2	1	2	0	
1	5	3	1	
0	1	0	0	
1	0	1	0	
3	2	4	1	
1	1	3	0	
1	1	3	0	
1	0	1	0	
0	1	1	0	
0	2	2	0	
3	0	6	0	
0	2	2	0	
2	0	2	0	
2	0	2	0	
2	1	1	0	
3	0	0	0	
0	3	2	0	
1	2	2	0	
0	2	1	0	
2	2	0	0	
2	3	2	0	
0	1	0	0	
2	2	1	0	
3	3	1	0	
0	1	1	0	
0	2	2	0	
0	1	0	0	
0	1	2	0	
2	2	2	0	
2	1	0	0	
0	3	2	0	
1	2	0	0	
1	1	1	0	
2	3	2	0	
0	3	2	0	
0	2	2	0	
3	2	2	0	
1	1	2	0	
1	1	3	0	
4	1	2	0	
1	1	3	0	
1	3	2	0	
0	0	1	0	
0	1	1	0	
0	3	1	0	
0	1	1	0	
0	0	2	0	
2	0	2	0	
4	0	1	0	
0	1	0	0	
1	0	2	0	
0	0	1	0	
1	1	3	0	
3	2	2	0	
0	2	2	0	
2	1	1	0	
2	1	2	0	
1	0	4	0	
1	0	1	0	
2	1	3	0	
0	0	1	0	
1	0	1	0	
2	2	2	0	
0	1	1	0	
2	0	0	0	
2	0	0	0	
3	1	1	0	
1	3	1	0	
2	0	2	0	
0	1	2	0	
1	3	1	0	
0	1	0	0	
1	0	0	0	
2	0	0	0	
0	2	0	0	
0	1	1	0	
1	1	3	0	
2	1	1	0	
3	1	0	0	
1	2	2	0	
1	1	3	0	
2	1	0	0	
2	1	2	0	
0	1	2	0	
1	0	2	0	
2	1	3	0	
1	1	1	0	
2	1	1	0	
1	0	1	0	
2	0	4	0	
0	0	2	0	
1	1	2	0	
1	0	1	0	
1	1	2	0	
2	1	2	0	
1	1	0	0	
1	3	0	0	
2	0	2	0	
2	1	3	0	
1	3	0	0	
1	2	2	0	
0	1	1	0	
2	1	4	0	
2	3	3	0	
2	1	3	0	
1	3	1	0	
1	1	4	0	
2	1	2	0	
1	1	0	0	
5	2	3	0	
2	0	1	0	
0	2	4	0	
2	0	1	0	
0	0	4	0	
0	0	1	0	
2	0	2	0	
2	2	1	0	
0	2	3	0	
1	1	2	0	
2	3	2	0	
4	3	0	0	
1	1	4	0	
1	0	0	0	
2	1	0	0	
1	1	0	0	
1	0	0	0	
2	3	1	0	
1	0	2	0	
0	0	2	0	
3	1	1	0	
1	2	2	0	
2	0	0	0	
0	2	0	0	
2	1	1	0	
1	3	0	0	
1	1	0	0	
4	1	2	0	
1	1	2	0	
4	1	1	0	
1	0	0	0	
4	0	1	0	
3	0	3	0	
2	0	2	0	
3	2	4	0	
1	1	4	0	
0	1	3	0	
2	1	2	0	
0	3	1	0	
1	1	0	0	
2	2	3	0	
1	1	2	1	
1	1	0	0	
1	0	3	0	
1	1	2	0	
1	0	2	0	
1	1	2	0	
1	2	0	0	
3	1	2	0	
2	1	3	1	
0	1	0	0	
2	0	2	0	
3	1	4	0	
2	0	0	0	
1	2	1	0	
0	1	2	0	
0	2	2	0	
2	2	1	0	
1	1	1	1	
2	1	2	0	
1	1	0	0	
1	0	2	0	
1	0	2	0	
1	1	0	0	
0	2	2	0	
0	1	2	0	
2	1	2	0	
1	0	4	0	
2	0	1	0	
1	0	0	0	
2	1	1	0	
0	1	1	0	
1	1	2	0	
3	1	0	0	
2	1	3	0	
1	0	0	1	
0	1	1	0	
2	1	1	0	
0	0	0	0	
1	2	4	0	
1	0	2	0	
3	3	0	0	
1	3	0	0	
1	0	0	0	
2	3	5	0	
