#PicoHarp 300  Histogram Data			03/28/2023 11:10:56 AM
#channels per curve
15625
#display curve no.
0	1	2	
#memory block no.
0	1	2	
#ns/channel
0.1280	0.1280	0.1280	
#counts
0	1	1	
0	0	0	
0	1	2	
0	0	1	
0	2	0	
0	2	1	
0	0	2	
0	1	0	
1	0	2	
0	0	2	
0	0	0	
0	1	1	
0	0	3	
0	2	2	
0	0	0	
0	1	2	
0	1	2	
0	0	3	
2	0	1	
0	0	3	
0	0	2	
1	0	1	
0	0	1	
0	0	1	
0	1	1	
1	1	2	
0	0	3	
0	1	1	
0	1	0	
0	1	2	
0	0	3	
0	0	1	
1	0	3	
0	0	1	
0	0	0	
1	0	2	
1	1	1	
1	1	2	
0	0	0	
0	2	0	
0	1	1	
0	0	5	
0	1	2	
1	1	0	
0	0	0	
0	0	1	
0	0	0	
0	1	0	
0	0	1	
0	0	3	
0	1	2	
0	0	2	
0	0	0	
0	0	1	
0	0	0	
1	0	1	
0	0	2	
0	1	0	
0	0	0	
0	1	2	
1	1	3	
0	0	0	
1	0	0	
0	0	1	
0	0	3	
0	0	3	
2	2	1	
3	2	4	
4	6	6	
11	12	11	
24	21	17	
31	29	55	
55	52	73	
57	61	100	
64	79	96	
93	98	73	
90	96	64	
93	87	82	
87	85	71	
93	69	60	
74	99	52	
100	88	68	
94	78	61	
84	89	50	
98	88	49	
76	100	56	
90	74	50	
88	69	60	
95	83	41	
80	76	52	
78	81	43	
75	85	42	
81	77	55	
73	75	46	
83	71	40	
71	59	49	
80	87	50	
81	72	58	
80	76	43	
77	61	45	
82	76	50	
76	70	43	
71	71	42	
69	68	47	
69	56	49	
64	72	57	
60	59	41	
78	69	48	
73	77	34	
70	60	50	
78	74	49	
70	80	46	
74	85	41	
71	75	58	
59	65	42	
77	58	47	
68	55	43	
82	59	47	
72	72	51	
59	61	50	
71	77	34	
82	62	54	
65	59	57	
60	56	44	
68	58	37	
81	62	55	
86	71	37	
57	53	41	
73	62	39	
62	69	37	
45	56	46	
61	62	41	
57	72	42	
94	51	42	
56	59	48	
65	67	44	
78	72	44	
67	51	53	
68	65	41	
65	57	38	
68	51	31	
64	50	39	
60	64	43	
58	51	46	
56	47	46	
52	58	46	
71	61	38	
56	62	42	
53	60	43	
72	54	34	
76	60	43	
73	70	39	
69	53	42	
73	54	28	
75	51	37	
57	64	40	
60	57	36	
65	59	44	
52	60	46	
58	61	41	
72	57	37	
60	62	39	
70	60	33	
70	66	39	
54	70	42	
72	71	37	
52	55	34	
64	59	36	
56	54	29	
60	64	41	
57	47	41	
63	62	38	
57	65	42	
63	57	41	
59	51	43	
66	57	26	
70	61	43	
79	53	46	
66	56	38	
55	49	39	
65	42	41	
66	49	43	
51	63	35	
74	53	36	
57	51	38	
67	48	34	
61	45	32	
44	52	42	
65	53	23	
60	52	35	
65	61	41	
55	43	35	
49	60	39	
59	58	31	
56	62	34	
55	56	44	
63	58	29	
54	39	37	
45	58	37	
40	51	29	
53	53	34	
61	55	45	
44	53	31	
46	54	36	
40	47	33	
55	54	51	
59	50	41	
53	47	38	
56	47	37	
53	46	41	
64	52	42	
67	57	43	
56	64	38	
53	53	44	
52	51	36	
53	54	31	
54	53	25	
52	60	28	
42	51	29	
44	62	35	
61	39	40	
51	45	30	
53	41	29	
51	43	34	
51	56	37	
55	58	32	
51	46	36	
38	54	29	
49	39	36	
54	67	42	
50	54	35	
49	59	32	
43	37	40	
60	48	35	
57	48	33	
53	56	38	
48	46	32	
62	47	34	
50	51	27	
59	52	33	
59	49	33	
46	55	50	
41	43	38	
50	54	37	
55	52	46	
47	49	38	
51	33	32	
64	41	32	
62	61	25	
41	54	32	
47	46	38	
50	56	31	
54	66	29	
52	43	27	
47	71	38	
53	65	32	
44	47	42	
47	48	33	
37	66	22	
55	46	29	
46	39	31	
40	50	35	
43	42	32	
56	47	34	
41	46	30	
47	45	27	
52	54	38	
26	58	31	
48	55	35	
32	49	34	
47	45	35	
52	46	32	
44	47	38	
35	47	36	
36	58	41	
41	43	39	
46	45	43	
43	55	21	
56	47	29	
59	40	32	
43	56	32	
35	39	36	
39	56	32	
49	42	27	
55	45	36	
42	50	34	
51	49	40	
46	36	19	
53	58	26	
45	45	19	
52	49	30	
38	50	33	
38	50	44	
50	51	30	
55	64	27	
44	38	37	
50	59	27	
47	46	30	
48	40	37	
42	46	31	
48	56	29	
53	40	40	
58	51	30	
54	46	46	
50	49	38	
35	47	30	
37	38	42	
46	51	33	
49	48	30	
55	44	28	
34	48	22	
46	52	39	
38	34	31	
30	52	40	
60	43	36	
41	38	28	
50	37	30	
41	27	31	
31	43	49	
44	46	33	
46	58	40	
46	45	24	
38	40	36	
46	37	32	
44	43	41	
44	41	24	
70	48	40	
50	37	35	
41	37	40	
32	43	31	
61	49	24	
48	47	39	
40	48	43	
47	30	23	
37	36	40	
48	40	38	
42	48	43	
46	53	36	
28	50	39	
43	43	32	
45	41	30	
40	41	20	
39	37	30	
48	26	28	
28	31	32	
45	24	29	
49	39	28	
41	37	32	
41	47	31	
46	52	18	
47	37	25	
44	42	15	
37	40	19	
52	45	32	
36	49	29	
38	39	35	
39	51	32	
48	35	33	
53	44	34	
36	53	32	
47	54	40	
40	30	40	
46	43	38	
41	44	26	
41	41	29	
48	50	28	
50	36	30	
35	43	29	
47	38	27	
41	53	38	
48	33	28	
52	38	22	
44	31	35	
34	44	38	
43	41	26	
48	41	26	
41	45	34	
33	43	29	
45	32	30	
39	43	24	
29	36	34	
35	41	43	
37	32	27	
35	37	25	
45	47	23	
28	45	30	
52	50	38	
32	32	27	
46	40	27	
42	35	37	
43	42	37	
46	39	35	
40	33	24	
41	43	33	
34	33	20	
35	28	21	
27	41	35	
37	49	31	
34	37	38	
41	39	39	
56	41	28	
41	53	37	
43	47	35	
44	35	29	
37	39	35	
38	28	24	
46	48	26	
37	45	27	
39	37	36	
36	36	27	
43	37	22	
41	36	32	
39	51	34	
26	35	21	
44	33	33	
58	43	24	
40	26	28	
32	37	24	
50	31	27	
41	31	31	
46	52	23	
29	24	29	
36	54	26	
33	48	29	
39	35	35	
26	35	31	
35	34	22	
37	38	26	
37	34	27	
35	33	35	
37	33	25	
33	37	35	
35	37	32	
27	40	31	
25	35	19	
36	35	24	
36	51	28	
30	34	34	
38	32	33	
44	43	24	
41	31	28	
38	39	28	
35	29	25	
29	42	30	
51	36	27	
32	41	22	
32	47	30	
40	28	31	
40	30	31	
25	37	35	
36	37	26	
31	40	32	
39	40	29	
34	39	25	
46	32	25	
36	40	29	
41	26	40	
33	35	30	
31	30	22	
30	43	26	
29	45	28	
32	40	33	
34	37	21	
34	28	29	
36	30	27	
44	38	26	
38	38	29	
42	36	25	
32	36	27	
35	39	21	
35	46	25	
39	37	27	
36	40	30	
32	39	23	
28	40	34	
35	36	23	
35	41	29	
25	36	30	
28	33	26	
27	35	26	
31	42	25	
23	35	22	
49	37	26	
33	35	34	
38	45	34	
45	39	35	
23	28	27	
41	38	27	
39	29	30	
30	42	24	
29	35	30	
37	35	22	
37	35	25	
29	32	22	
23	49	31	
36	29	27	
29	36	37	
34	29	30	
45	31	19	
29	45	25	
37	31	32	
22	37	30	
40	39	42	
35	35	30	
44	36	21	
31	27	23	
42	35	24	
36	37	32	
45	33	28	
33	32	26	
22	29	28	
29	33	21	
49	42	24	
21	33	28	
36	32	19	
36	33	16	
31	35	29	
36	32	30	
29	39	30	
39	37	19	
40	34	27	
32	37	22	
30	36	30	
33	33	32	
28	36	29	
28	23	33	
34	35	16	
41	29	27	
26	28	31	
21	32	31	
28	49	23	
34	36	27	
30	44	26	
27	29	31	
37	40	35	
22	34	22	
28	29	26	
32	30	28	
30	23	32	
41	44	23	
34	25	25	
24	37	17	
28	38	31	
37	35	26	
38	40	25	
17	27	31	
30	27	22	
41	35	39	
34	28	29	
37	31	17	
29	31	31	
23	34	23	
35	35	25	
40	28	29	
37	33	24	
25	25	31	
30	30	25	
24	40	29	
41	35	26	
31	42	28	
40	37	25	
35	35	27	
34	24	21	
33	25	24	
32	31	28	
20	38	21	
30	33	21	
30	32	25	
33	34	27	
36	35	29	
26	37	24	
30	28	21	
36	31	23	
39	37	24	
39	39	28	
23	32	31	
22	39	18	
25	35	23	
28	35	31	
30	25	33	
23	31	23	
24	33	23	
25	31	27	
40	45	28	
32	39	27	
36	25	32	
26	36	37	
33	33	25	
43	35	25	
32	35	30	
26	30	32	
32	29	22	
24	32	24	
36	22	32	
33	33	31	
26	22	16	
29	32	25	
35	40	28	
50	39	32	
20	29	30	
24	34	26	
18	37	29	
25	35	19	
27	27	33	
30	37	30	
26	37	19	
35	36	18	
26	35	24	
32	34	23	
39	38	31	
29	26	20	
32	27	26	
27	22	37	
25	36	21	
22	26	21	
30	37	22	
21	25	16	
32	29	21	
21	27	33	
33	43	22	
35	31	32	
20	24	26	
21	32	24	
31	33	23	
22	36	19	
25	30	40	
36	28	35	
38	29	21	
31	39	25	
31	35	25	
28	35	24	
32	26	17	
26	28	26	
20	28	29	
26	28	24	
28	25	27	
32	26	15	
24	30	26	
29	29	22	
31	28	22	
30	30	28	
16	32	32	
33	31	24	
27	29	29	
31	25	21	
33	30	25	
30	29	29	
30	35	26	
36	23	21	
24	36	28	
29	34	34	
21	27	20	
27	39	25	
14	30	23	
32	24	31	
19	34	22	
29	29	28	
34	18	20	
25	24	25	
22	28	28	
23	23	24	
25	21	19	
24	30	23	
26	27	27	
22	29	20	
26	23	17	
18	28	16	
29	26	21	
19	27	25	
17	29	18	
21	35	22	
28	22	27	
30	23	18	
31	32	34	
23	38	26	
25	22	25	
23	28	22	
25	28	29	
25	34	22	
35	26	19	
21	28	22	
22	24	28	
24	27	26	
29	27	22	
30	25	18	
18	25	29	
19	23	30	
22	28	23	
27	32	16	
28	26	26	
32	16	21	
26	18	31	
23	28	21	
25	24	28	
15	27	27	
25	29	36	
18	18	26	
19	20	18	
28	32	32	
19	22	19	
26	28	22	
29	39	35	
22	29	25	
26	28	26	
26	35	32	
26	22	23	
22	23	21	
27	27	19	
24	26	27	
24	33	34	
36	30	23	
22	33	28	
23	30	31	
23	30	29	
24	31	32	
18	22	19	
27	28	19	
29	29	28	
21	27	23	
23	26	17	
25	26	18	
24	18	32	
26	17	25	
23	24	24	
15	17	19	
20	29	26	
21	36	24	
29	25	19	
20	21	29	
26	24	26	
27	27	24	
24	17	23	
23	28	18	
31	35	24	
26	21	21	
18	19	21	
20	31	23	
21	33	24	
23	25	19	
27	23	16	
22	24	22	
20	30	25	
13	28	29	
26	22	24	
32	21	18	
14	24	14	
28	22	17	
27	27	21	
20	24	23	
22	23	15	
25	24	23	
21	18	32	
21	30	28	
19	32	22	
23	19	24	
27	25	21	
21	23	23	
26	22	28	
22	20	30	
16	27	27	
29	17	24	
23	27	21	
21	29	33	
35	29	21	
27	41	22	
15	24	28	
26	25	19	
32	29	18	
22	20	19	
23	26	19	
24	25	23	
18	23	28	
30	24	27	
19	33	27	
18	34	21	
21	24	23	
18	28	25	
18	28	19	
19	19	25	
23	30	10	
22	16	23	
19	25	19	
27	26	23	
16	21	13	
23	23	19	
14	39	21	
12	32	23	
24	33	20	
26	26	17	
17	35	17	
24	23	15	
20	28	25	
28	25	23	
18	23	17	
33	21	22	
24	20	24	
27	19	19	
24	19	23	
23	30	21	
18	29	23	
21	24	22	
25	16	19	
21	33	18	
29	27	24	
19	33	15	
19	21	19	
19	22	25	
12	31	18	
17	21	29	
28	16	13	
25	27	20	
29	22	26	
24	28	29	
20	30	26	
22	16	19	
23	28	15	
22	30	15	
23	20	17	
20	24	26	
25	16	24	
24	32	17	
25	25	18	
26	28	18	
22	18	24	
23	18	21	
16	30	25	
14	19	19	
18	25	23	
15	23	28	
18	20	21	
14	27	23	
20	26	22	
11	29	15	
16	24	15	
21	26	15	
16	27	21	
28	30	13	
15	18	22	
23	24	30	
21	32	21	
21	31	22	
18	21	30	
21	17	24	
22	23	13	
17	19	18	
21	29	21	
30	29	20	
17	23	23	
25	26	24	
15	22	13	
20	25	21	
26	29	20	
24	21	19	
18	21	20	
16	18	29	
23	20	28	
26	21	20	
16	20	18	
18	23	22	
19	16	28	
19	25	17	
22	17	27	
17	29	26	
26	25	23	
19	24	28	
20	21	16	
17	26	19	
18	15	19	
27	22	22	
20	18	29	
23	25	21	
20	28	25	
21	28	20	
18	20	15	
15	26	17	
19	18	26	
24	14	25	
25	26	21	
17	14	12	
17	21	24	
17	18	34	
19	18	22	
16	14	25	
17	24	17	
23	36	20	
20	19	21	
12	20	21	
20	11	24	
17	28	33	
15	16	17	
23	22	27	
12	32	31	
15	29	25	
14	29	25	
20	22	18	
20	23	19	
15	17	37	
27	19	15	
14	20	24	
19	15	24	
24	20	27	
19	20	22	
13	23	22	
21	14	23	
7	23	26	
13	26	23	
19	26	26	
29	20	14	
18	20	21	
22	28	19	
14	20	25	
13	24	20	
18	25	15	
22	22	16	
28	30	33	
17	29	21	
15	20	26	
20	25	19	
18	31	17	
20	24	20	
23	23	14	
14	12	18	
12	18	21	
17	20	27	
20	20	22	
22	20	26	
19	27	31	
25	21	17	
20	19	25	
14	30	21	
16	17	18	
18	16	19	
22	17	23	
13	20	18	
23	25	18	
14	21	21	
22	21	22	
24	22	29	
18	12	34	
19	27	25	
15	27	22	
13	13	25	
17	28	23	
12	25	15	
8	24	21	
16	18	16	
15	25	14	
17	20	27	
16	21	22	
17	27	26	
15	15	15	
17	34	16	
12	19	17	
17	15	23	
22	17	12	
13	20	15	
12	21	17	
18	23	22	
19	27	18	
19	20	17	
20	21	16	
25	19	23	
22	24	18	
13	25	21	
17	19	17	
18	21	11	
28	20	24	
26	13	18	
23	17	20	
26	24	16	
15	27	23	
17	23	24	
18	18	22	
12	22	16	
19	24	28	
14	19	15	
19	19	13	
20	19	17	
19	24	19	
13	19	27	
15	14	27	
9	22	16	
15	20	23	
16	22	16	
17	21	22	
16	17	14	
20	26	14	
13	21	22	
16	23	18	
12	30	17	
19	20	19	
16	19	25	
16	17	16	
18	24	19	
20	21	20	
23	16	21	
19	22	12	
18	20	18	
14	23	19	
9	16	16	
23	22	20	
16	19	24	
8	22	15	
15	20	21	
19	24	20	
23	21	19	
15	26	21	
16	21	17	
15	20	15	
12	13	23	
18	28	19	
18	21	16	
15	20	22	
15	20	17	
11	20	28	
17	22	20	
18	18	16	
12	20	21	
13	13	19	
19	17	14	
15	7	22	
14	32	14	
14	21	18	
12	9	14	
17	20	27	
12	24	24	
13	16	19	
14	19	14	
20	19	18	
18	19	32	
19	17	23	
21	20	21	
16	22	24	
18	22	19	
20	25	26	
13	23	14	
20	20	25	
21	24	9	
16	14	23	
18	18	17	
20	11	14	
17	15	20	
10	24	22	
18	23	19	
13	27	20	
17	15	17	
15	28	17	
20	18	28	
17	15	20	
22	15	16	
19	21	12	
19	21	10	
9	21	15	
21	12	22	
13	25	13	
13	16	19	
19	17	24	
13	25	21	
13	18	11	
19	24	19	
11	9	13	
17	13	15	
19	24	20	
18	17	16	
19	17	19	
20	18	22	
15	16	15	
12	16	16	
15	28	19	
9	25	26	
14	17	12	
13	19	24	
15	18	11	
16	19	14	
18	13	30	
17	16	12	
18	18	19	
17	23	19	
9	13	14	
10	24	21	
17	21	18	
9	24	15	
20	22	19	
21	13	19	
11	19	14	
5	18	23	
12	14	19	
9	27	21	
12	14	15	
14	16	14	
12	12	22	
11	17	15	
19	21	11	
16	21	12	
19	22	19	
16	15	15	
14	15	22	
18	20	18	
11	21	20	
15	18	17	
9	17	17	
15	18	22	
20	29	15	
12	22	16	
22	19	12	
12	24	14	
14	22	24	
10	14	20	
7	23	21	
15	17	25	
14	18	14	
11	24	20	
12	21	13	
19	22	17	
19	18	19	
12	20	22	
21	17	22	
15	25	8	
13	17	18	
11	6	20	
14	20	16	
14	19	19	
15	14	18	
12	20	20	
13	18	23	
23	17	18	
10	17	24	
17	15	18	
19	23	22	
17	16	24	
15	20	20	
14	14	22	
24	15	19	
17	11	18	
21	12	17	
12	17	22	
13	20	15	
20	20	18	
16	13	18	
8	9	13	
20	15	14	
18	20	21	
12	15	9	
16	20	26	
17	21	25	
12	17	20	
13	17	19	
18	18	24	
13	19	11	
15	13	24	
11	17	20	
23	12	17	
14	17	22	
11	18	18	
17	21	17	
16	17	17	
14	18	23	
21	16	22	
10	22	15	
12	20	20	
7	17	20	
10	29	18	
19	15	21	
13	11	20	
10	20	18	
13	23	27	
19	20	16	
14	16	17	
10	19	20	
12	18	22	
13	20	11	
13	11	23	
16	18	9	
10	21	17	
15	19	21	
11	14	14	
12	13	20	
16	19	27	
6	21	16	
13	22	22	
14	22	16	
9	17	6	
16	15	14	
10	16	14	
15	18	15	
14	8	15	
20	15	11	
10	19	19	
15	16	18	
13	33	13	
14	22	19	
20	13	14	
16	16	17	
8	17	23	
11	15	23	
19	14	15	
15	25	13	
12	17	17	
14	17	19	
16	17	21	
13	21	16	
18	18	13	
13	18	8	
12	17	17	
12	24	14	
10	19	14	
16	18	14	
9	21	18	
14	15	18	
10	10	16	
18	14	14	
13	16	16	
11	11	18	
10	18	13	
9	16	18	
12	17	22	
14	15	14	
12	16	15	
17	14	11	
17	18	21	
17	17	13	
14	12	16	
16	14	13	
8	22	20	
8	15	10	
15	13	18	
12	14	21	
17	14	14	
7	17	24	
17	13	17	
16	16	19	
12	18	18	
11	14	17	
15	21	19	
16	14	11	
15	19	21	
12	13	17	
14	13	17	
11	18	16	
20	12	22	
26	20	12	
20	16	24	
16	8	19	
9	15	11	
8	22	22	
17	24	11	
21	14	13	
12	11	11	
14	17	20	
8	13	13	
6	9	22	
6	25	17	
14	19	17	
7	18	20	
17	14	18	
13	17	10	
16	4	16	
12	11	14	
14	13	16	
11	18	12	
13	27	15	
12	22	17	
16	17	23	
23	13	13	
11	15	19	
10	20	12	
11	23	20	
12	11	13	
10	16	14	
7	16	12	
11	18	16	
10	21	15	
8	24	21	
9	12	12	
14	15	14	
10	19	15	
18	19	15	
7	13	13	
9	12	18	
13	15	18	
8	12	17	
21	15	11	
20	13	13	
8	16	18	
7	17	14	
9	15	9	
15	14	25	
10	9	11	
13	17	17	
15	14	15	
11	16	18	
6	14	23	
9	14	16	
17	13	22	
9	14	16	
9	18	13	
15	19	13	
12	12	19	
9	7	14	
12	11	20	
18	19	10	
17	9	17	
20	15	19	
9	13	10	
8	17	12	
18	19	20	
8	12	6	
21	11	15	
6	13	16	
17	15	19	
9	23	13	
12	15	12	
16	14	10	
8	15	16	
15	9	22	
11	19	22	
11	20	13	
1	14	17	
18	15	16	
7	17	13	
10	20	10	
11	8	21	
9	11	17	
9	22	12	
9	14	13	
13	12	12	
8	11	14	
10	19	15	
9	14	10	
10	20	14	
4	19	16	
5	17	14	
10	17	19	
7	10	12	
9	17	9	
13	17	12	
13	13	12	
10	16	10	
8	17	19	
16	21	19	
14	15	12	
15	13	16	
6	15	16	
12	15	18	
13	8	13	
11	21	14	
7	16	16	
11	16	11	
15	8	13	
11	19	11	
18	13	20	
13	21	12	
8	17	15	
8	18	11	
13	11	22	
12	11	20	
12	16	19	
8	9	18	
9	13	31	
8	13	20	
19	10	17	
9	13	17	
7	9	10	
10	12	7	
14	20	16	
14	13	16	
11	8	13	
13	18	16	
13	16	15	
11	20	17	
11	21	19	
9	18	13	
10	10	11	
8	12	12	
8	15	11	
9	17	17	
15	17	10	
8	16	16	
7	19	14	
15	15	12	
13	12	15	
8	16	22	
18	14	12	
14	15	11	
8	23	20	
10	13	10	
8	17	7	
11	18	20	
7	17	18	
9	12	11	
8	7	8	
11	17	16	
13	16	9	
11	18	12	
13	16	14	
13	13	19	
11	13	11	
7	11	10	
16	29	21	
6	20	16	
11	14	13	
9	18	15	
11	16	15	
8	11	7	
9	7	13	
16	18	12	
7	15	12	
12	11	14	
13	11	15	
17	15	15	
11	27	12	
8	15	13	
15	11	14	
10	10	14	
16	11	11	
9	6	19	
8	20	19	
10	10	19	
5	11	17	
11	12	17	
5	10	13	
9	16	22	
17	13	16	
15	14	13	
9	15	11	
15	16	12	
8	12	18	
12	11	15	
5	19	15	
10	12	12	
12	12	14	
11	19	15	
15	14	23	
12	16	17	
8	17	15	
13	10	16	
9	20	13	
10	12	14	
10	13	15	
9	10	8	
9	13	10	
7	16	21	
16	18	15	
19	11	18	
6	12	15	
7	6	16	
11	13	18	
14	18	13	
11	10	14	
12	12	21	
9	11	9	
11	14	18	
10	12	17	
15	13	14	
8	12	12	
7	11	12	
8	16	19	
9	12	12	
15	15	13	
18	15	16	
9	21	10	
14	12	13	
13	13	22	
6	11	12	
18	15	12	
11	12	14	
8	14	12	
12	12	12	
7	14	13	
11	19	14	
17	16	16	
6	16	11	
13	13	13	
15	16	13	
3	11	14	
9	10	17	
5	11	11	
7	18	17	
8	18	16	
8	16	8	
11	10	12	
6	10	19	
14	11	10	
13	11	16	
10	10	18	
5	14	10	
15	8	8	
8	20	18	
8	9	10	
12	13	9	
9	16	15	
13	6	12	
10	15	13	
10	10	13	
11	14	17	
7	17	18	
13	11	14	
7	12	8	
11	15	13	
7	12	14	
5	11	13	
9	18	11	
7	7	10	
11	10	18	
15	13	16	
8	11	21	
13	12	15	
16	21	20	
9	17	18	
10	12	11	
14	16	17	
10	16	20	
14	10	19	
11	11	9	
10	12	13	
5	16	20	
11	12	14	
8	18	14	
5	13	23	
10	12	9	
6	15	10	
7	15	13	
8	11	13	
15	9	19	
10	10	13	
8	19	10	
6	15	18	
13	7	10	
10	13	12	
15	10	15	
11	16	11	
12	12	19	
15	18	23	
4	12	12	
14	10	18	
10	13	17	
16	13	16	
8	15	16	
7	20	17	
15	7	14	
9	15	14	
11	18	16	
6	4	18	
7	9	12	
11	11	10	
9	17	13	
7	13	13	
10	9	10	
13	13	9	
15	12	16	
10	21	6	
10	11	8	
10	15	10	
8	15	10	
6	15	14	
3	10	14	
16	13	13	
8	17	12	
15	7	7	
9	13	13	
9	17	15	
12	14	10	
7	11	11	
9	15	12	
7	21	20	
13	9	15	
6	16	20	
14	14	14	
8	12	15	
11	12	22	
7	12	11	
7	17	10	
8	14	15	
11	8	8	
12	11	17	
8	17	13	
6	10	13	
8	8	13	
6	14	13	
7	11	9	
9	12	13	
10	14	16	
7	6	10	
7	16	17	
10	15	17	
13	13	13	
3	10	14	
9	8	14	
6	7	18	
9	11	15	
11	14	13	
9	15	8	
8	14	9	
9	12	15	
8	15	18	
11	20	13	
10	16	15	
11	9	15	
5	13	18	
10	9	18	
7	13	19	
9	10	11	
12	22	14	
7	12	12	
10	10	21	
11	10	11	
7	15	5	
8	7	14	
12	11	8	
7	8	17	
10	13	12	
8	10	16	
7	11	18	
8	10	10	
9	10	12	
9	13	9	
10	11	14	
13	13	13	
7	9	12	
3	12	11	
8	8	18	
6	16	14	
8	9	9	
9	9	15	
9	13	11	
3	15	14	
5	13	16	
8	12	11	
10	11	12	
8	11	16	
10	5	9	
10	7	14	
7	10	12	
12	14	13	
7	8	18	
11	12	12	
10	13	14	
8	10	8	
8	13	17	
11	7	14	
7	8	14	
7	13	8	
12	8	9	
5	14	13	
6	8	10	
11	12	13	
7	11	13	
7	5	12	
11	17	14	
6	16	17	
7	11	17	
8	11	10	
6	6	7	
5	9	16	
8	16	9	
6	6	7	
10	9	7	
5	13	8	
9	6	12	
11	11	16	
11	16	11	
6	7	10	
10	16	8	
11	16	16	
9	16	16	
9	12	12	
6	14	10	
7	7	24	
10	16	15	
10	17	11	
12	7	11	
7	8	9	
9	12	19	
8	10	10	
2	8	8	
4	9	24	
4	5	10	
5	12	9	
5	8	13	
7	7	12	
10	10	11	
7	7	14	
11	6	13	
9	10	15	
11	8	18	
5	11	12	
8	15	17	
10	7	19	
8	9	12	
7	13	6	
6	8	15	
8	14	11	
7	9	7	
6	10	13	
7	13	20	
7	11	19	
8	13	14	
10	11	11	
8	7	11	
7	13	10	
9	11	23	
5	15	7	
7	13	9	
8	12	18	
6	17	10	
13	12	9	
7	14	11	
7	16	14	
9	12	15	
8	11	15	
5	13	12	
15	17	11	
5	10	7	
7	8	14	
5	12	12	
7	15	15	
7	6	16	
5	10	11	
9	5	10	
5	7	11	
8	11	15	
14	10	15	
11	13	18	
6	18	10	
3	13	9	
9	14	10	
5	8	8	
11	7	5	
10	16	11	
10	6	11	
9	13	20	
3	6	12	
5	4	12	
7	16	16	
7	12	14	
14	8	16	
9	9	16	
5	11	13	
8	16	19	
6	15	9	
11	7	9	
10	6	14	
6	12	13	
13	8	14	
10	10	15	
8	12	11	
7	11	6	
10	12	11	
6	10	12	
12	10	14	
8	15	16	
3	9	16	
6	9	8	
4	15	6	
5	12	16	
8	11	10	
4	6	13	
10	9	14	
5	13	24	
7	10	9	
7	11	6	
10	8	18	
6	7	13	
4	11	8	
12	10	13	
5	13	14	
11	8	12	
11	8	14	
6	12	7	
9	13	16	
8	6	8	
9	9	18	
4	8	12	
13	7	10	
15	6	11	
6	14	15	
12	10	12	
10	7	13	
6	9	11	
9	9	16	
7	12	12	
7	9	13	
12	10	12	
3	9	15	
11	10	14	
5	11	17	
7	13	11	
13	13	10	
6	11	8	
5	12	10	
6	7	11	
3	5	10	
7	10	16	
8	9	19	
6	9	6	
13	14	19	
7	10	15	
9	13	8	
8	11	6	
8	10	18	
4	11	14	
5	17	8	
10	18	12	
7	11	4	
7	8	14	
7	8	13	
5	9	8	
6	9	11	
7	10	11	
5	7	19	
10	12	6	
9	9	10	
6	10	13	
4	12	14	
6	14	15	
9	11	8	
9	12	12	
7	13	14	
7	6	10	
6	10	14	
6	7	15	
10	6	13	
4	11	11	
9	12	13	
10	7	8	
5	9	17	
5	10	16	
9	13	13	
7	14	10	
11	7	13	
10	10	13	
9	7	9	
4	11	13	
4	10	14	
6	9	10	
5	12	17	
6	9	26	
9	10	11	
10	12	17	
4	11	6	
2	10	10	
9	9	12	
3	10	12	
10	10	14	
8	12	19	
5	10	8	
8	15	15	
7	14	9	
8	6	7	
14	10	18	
9	8	11	
7	7	12	
3	6	12	
10	11	12	
9	12	9	
10	11	13	
6	12	10	
7	7	11	
4	5	14	
8	9	15	
8	9	5	
7	10	11	
12	5	10	
9	10	20	
7	6	9	
4	11	11	
12	9	9	
9	10	15	
8	5	7	
3	5	15	
5	12	13	
5	10	10	
6	12	12	
8	3	10	
10	9	18	
9	10	15	
2	9	12	
4	10	4	
2	8	16	
7	15	15	
10	5	14	
7	13	9	
10	14	5	
6	12	9	
2	8	11	
7	6	5	
7	9	9	
5	10	14	
4	8	16	
7	8	8	
8	8	10	
7	12	11	
6	10	16	
4	7	11	
11	5	12	
8	6	3	
7	11	14	
4	11	11	
8	12	11	
5	11	18	
5	6	15	
6	5	9	
5	4	10	
7	16	13	
10	12	14	
6	11	16	
4	11	12	
5	6	7	
7	14	16	
4	9	7	
6	7	17	
8	23	13	
8	6	11	
10	10	16	
8	6	21	
12	8	10	
10	12	9	
3	12	12	
5	7	14	
5	8	13	
4	6	6	
6	17	10	
8	15	12	
8	11	10	
5	12	12	
3	8	12	
8	6	9	
6	6	10	
8	8	10	
9	7	13	
8	4	12	
5	10	8	
9	8	8	
8	7	15	
4	7	7	
7	6	9	
5	8	11	
6	12	8	
7	6	17	
12	12	9	
4	7	14	
4	7	7	
8	11	8	
4	15	11	
6	12	14	
9	11	7	
10	6	14	
6	5	7	
7	14	15	
5	11	8	
9	5	11	
4	5	9	
8	9	9	
10	12	15	
9	10	14	
4	11	13	
9	7	6	
5	9	15	
5	15	9	
4	13	11	
5	14	9	
8	5	14	
10	10	14	
11	5	12	
9	11	14	
7	10	5	
9	11	10	
7	9	13	
5	12	6	
6	9	8	
4	7	8	
4	10	9	
4	9	10	
4	10	7	
4	9	7	
11	15	18	
6	12	17	
10	9	15	
11	11	10	
4	7	14	
3	8	10	
8	7	10	
5	5	7	
6	8	11	
3	10	15	
4	9	15	
3	8	15	
8	9	14	
8	8	15	
11	11	10	
7	9	10	
8	8	12	
13	10	11	
4	8	7	
7	6	9	
8	8	7	
6	11	9	
2	5	11	
7	6	13	
8	6	11	
8	9	11	
4	10	9	
8	9	12	
14	5	9	
5	11	6	
4	10	13	
4	7	14	
8	8	7	
9	4	12	
3	11	8	
7	14	10	
4	10	11	
7	5	11	
5	7	11	
5	10	9	
5	10	15	
3	11	7	
5	13	6	
6	12	17	
8	8	11	
6	10	13	
7	4	16	
5	8	9	
4	9	9	
6	11	8	
6	14	5	
5	7	9	
5	6	7	
11	10	10	
7	4	9	
4	8	12	
7	10	10	
5	9	16	
6	14	11	
7	10	13	
10	8	10	
5	5	11	
6	8	9	
7	10	12	
9	6	7	
4	13	11	
2	9	9	
7	8	9	
2	8	10	
12	14	9	
6	7	10	
5	7	11	
10	13	10	
4	10	9	
10	11	11	
7	6	10	
6	3	7	
13	5	6	
7	8	5	
7	6	13	
6	14	16	
3	10	9	
11	6	8	
9	6	8	
9	5	6	
8	5	10	
7	8	11	
7	7	4	
8	15	14	
6	6	15	
5	10	12	
6	13	16	
5	11	8	
9	7	10	
2	11	12	
5	5	11	
3	16	9	
11	9	8	
7	7	5	
8	10	7	
5	11	7	
7	13	20	
5	10	7	
6	14	9	
9	2	11	
2	8	9	
7	8	16	
3	11	5	
8	10	15	
2	6	9	
5	10	12	
2	5	8	
6	5	11	
9	7	7	
7	8	11	
5	5	12	
6	12	12	
5	6	11	
7	13	9	
8	8	15	
8	9	11	
6	6	12	
9	7	12	
3	6	8	
4	9	13	
6	9	10	
12	6	11	
8	7	9	
3	8	7	
2	9	9	
7	8	7	
7	6	10	
6	14	13	
4	4	14	
10	3	10	
4	9	14	
8	8	10	
3	16	6	
6	11	9	
4	11	10	
5	13	5	
4	8	8	
5	4	14	
2	12	6	
5	10	6	
6	3	11	
2	9	10	
1	6	13	
10	10	7	
4	9	12	
4	7	9	
7	8	14	
5	8	11	
7	7	8	
7	10	12	
7	9	13	
6	5	10	
7	5	7	
3	6	12	
2	6	8	
4	7	8	
7	11	6	
6	7	13	
8	7	7	
2	8	15	
2	11	13	
7	9	13	
6	4	9	
7	12	10	
10	5	10	
7	9	9	
3	10	7	
3	7	6	
2	8	12	
5	11	14	
6	6	13	
10	4	12	
6	8	5	
3	5	6	
3	4	11	
9	6	8	
6	7	11	
8	8	10	
1	7	11	
3	8	12	
8	12	13	
8	13	15	
3	5	18	
2	9	11	
4	5	10	
3	7	5	
5	5	8	
5	8	13	
7	8	4	
7	9	14	
9	8	10	
1	6	5	
3	11	8	
4	5	21	
7	4	9	
6	3	14	
8	7	8	
1	3	6	
4	8	8	
5	14	6	
4	11	9	
7	11	12	
6	20	9	
3	9	7	
6	11	12	
5	5	8	
3	9	17	
10	3	15	
4	9	10	
6	8	9	
5	10	11	
0	6	11	
5	3	9	
5	8	5	
3	6	9	
5	9	7	
6	9	14	
3	1	7	
5	8	8	
7	4	12	
4	8	15	
4	5	14	
5	9	10	
6	7	14	
4	9	11	
3	10	6	
5	10	8	
4	7	6	
5	1	5	
1	8	17	
3	4	10	
6	6	6	
6	2	11	
3	5	8	
2	8	9	
6	7	10	
3	8	7	
7	8	4	
3	5	9	
7	5	15	
7	7	8	
5	9	14	
6	7	8	
4	6	11	
6	8	4	
2	8	6	
4	5	9	
7	6	12	
4	4	11	
4	7	14	
6	9	9	
3	12	8	
5	4	7	
7	6	11	
3	17	12	
7	5	6	
4	5	8	
7	9	11	
4	5	13	
11	14	5	
4	9	10	
4	9	11	
4	5	8	
5	7	6	
8	10	12	
10	8	7	
7	5	10	
6	3	8	
7	12	12	
9	8	5	
6	11	7	
4	5	8	
3	7	9	
4	6	7	
3	4	11	
6	7	4	
7	7	15	
6	12	4	
3	7	7	
8	9	10	
8	9	10	
4	4	8	
2	5	14	
11	5	6	
10	7	7	
7	11	5	
12	5	13	
5	4	11	
4	6	8	
3	6	3	
8	5	12	
4	7	9	
9	11	15	
6	7	9	
6	5	9	
4	3	4	
2	6	8	
4	6	10	
9	7	7	
13	9	9	
7	6	8	
5	6	12	
8	8	9	
5	7	6	
6	12	10	
5	3	17	
8	8	7	
5	11	8	
5	8	3	
9	9	9	
3	9	8	
8	6	12	
5	11	10	
3	9	3	
9	10	14	
3	12	10	
3	4	11	
9	9	9	
3	6	13	
5	14	10	
5	4	11	
6	4	8	
8	9	5	
4	10	4	
6	10	4	
4	12	10	
6	5	10	
3	7	10	
6	3	10	
3	7	5	
4	10	5	
6	2	6	
4	10	11	
6	10	10	
8	6	8	
6	6	7	
6	10	11	
4	4	11	
7	3	16	
5	13	10	
6	6	11	
7	5	8	
5	10	13	
3	11	11	
4	2	9	
4	5	13	
3	5	8	
8	6	5	
7	3	8	
5	7	8	
5	4	12	
5	7	4	
8	8	7	
5	6	7	
5	10	7	
4	4	7	
2	8	10	
2	6	10	
6	5	7	
6	2	7	
7	8	8	
1	6	16	
4	8	12	
3	7	8	
6	14	11	
4	7	7	
4	4	7	
7	12	7	
4	4	12	
3	11	12	
3	6	12	
2	6	9	
3	3	5	
9	7	7	
2	9	6	
9	12	8	
4	5	10	
4	6	6	
3	10	11	
3	9	15	
6	3	8	
7	6	4	
9	6	4	
6	4	8	
5	10	10	
7	7	6	
5	4	7	
3	8	12	
6	8	14	
4	6	9	
7	9	8	
0	8	10	
13	9	13	
2	4	8	
9	11	10	
5	7	14	
8	8	8	
4	9	4	
2	9	12	
7	8	3	
3	10	6	
5	8	7	
9	5	5	
4	6	11	
2	4	12	
0	10	6	
3	16	8	
5	6	6	
6	3	10	
3	7	9	
3	7	10	
5	6	13	
7	6	8	
7	9	9	
2	7	10	
1	6	13	
1	14	8	
7	7	9	
6	2	8	
4	7	12	
6	8	9	
8	11	7	
4	5	12	
3	8	10	
2	6	13	
5	6	11	
2	5	10	
7	13	7	
5	5	6	
3	5	10	
7	3	2	
2	8	9	
5	3	10	
5	5	4	
6	9	8	
5	7	9	
3	10	12	
4	6	8	
5	6	8	
5	7	9	
1	3	12	
4	5	8	
1	4	2	
5	4	12	
4	10	6	
3	9	15	
6	8	11	
7	9	8	
6	5	6	
6	10	6	
4	4	9	
4	13	11	
4	6	13	
3	3	7	
4	8	4	
7	6	13	
5	9	12	
6	3	10	
6	10	5	
3	2	14	
8	4	4	
6	4	14	
3	3	13	
2	6	10	
8	10	8	
4	3	9	
2	12	9	
4	6	7	
4	2	13	
5	12	14	
5	7	5	
8	7	6	
5	5	10	
6	8	6	
3	5	8	
6	5	8	
4	8	12	
4	7	8	
2	6	7	
1	2	11	
4	8	8	
2	6	7	
3	9	10	
4	8	7	
4	7	10	
3	5	10	
5	5	6	
4	4	11	
5	2	8	
3	4	14	
4	10	5	
6	6	11	
1	5	12	
5	4	5	
4	9	10	
3	4	9	
7	9	9	
3	15	9	
4	12	10	
5	9	8	
5	2	9	
6	5	3	
5	3	7	
4	12	8	
3	6	7	
3	5	11	
4	7	13	
1	11	6	
8	7	9	
4	7	4	
4	6	8	
3	9	5	
7	7	14	
4	4	7	
6	4	11	
2	8	11	
6	3	7	
5	4	7	
3	7	7	
2	8	8	
3	5	7	
4	7	6	
7	14	3	
3	9	10	
2	5	10	
2	9	8	
4	4	9	
5	3	6	
3	5	9	
3	5	8	
7	8	8	
4	6	17	
1	7	7	
6	5	7	
6	7	9	
7	4	8	
2	5	9	
3	6	10	
3	8	11	
5	10	14	
1	2	7	
2	5	9	
4	9	10	
1	9	11	
6	2	4	
3	2	6	
0	5	12	
9	2	10	
2	6	9	
4	4	13	
5	5	9	
8	6	10	
2	5	6	
4	8	6	
5	6	7	
3	8	6	
7	7	14	
6	6	3	
4	7	11	
3	2	9	
4	4	8	
3	5	6	
1	5	13	
6	4	8	
4	4	7	
4	6	7	
2	7	7	
6	6	6	
5	7	8	
5	9	7	
6	4	14	
5	8	5	
5	5	8	
3	10	4	
7	2	8	
5	7	11	
4	9	8	
5	1	8	
4	8	6	
5	7	11	
4	4	4	
7	5	7	
6	10	7	
5	9	8	
2	9	10	
4	13	8	
5	8	9	
4	10	12	
3	7	10	
7	4	7	
2	5	11	
1	3	8	
4	5	9	
4	7	7	
5	5	10	
3	2	10	
3	8	4	
3	6	7	
2	7	11	
6	3	5	
4	7	8	
5	4	8	
8	5	15	
3	8	10	
2	4	5	
6	4	9	
5	5	6	
6	10	6	
4	3	3	
4	5	10	
3	10	11	
2	6	3	
1	2	2	
7	7	9	
3	1	5	
3	4	6	
7	9	13	
4	3	7	
4	6	4	
3	6	4	
8	6	7	
7	4	5	
3	5	4	
1	6	7	
2	10	9	
2	3	8	
4	6	11	
2	3	10	
6	8	14	
5	6	7	
3	10	4	
3	6	5	
4	8	7	
9	10	8	
2	5	5	
6	8	10	
2	4	7	
5	5	7	
6	13	3	
3	6	5	
6	8	9	
1	6	7	
5	3	3	
4	7	13	
5	4	10	
5	6	5	
2	8	10	
5	5	5	
3	3	11	
5	8	8	
3	6	8	
5	7	10	
8	9	9	
2	6	5	
4	4	10	
2	6	15	
5	7	12	
2	7	4	
4	7	6	
10	4	6	
4	7	12	
7	10	4	
5	4	5	
1	3	8	
2	3	9	
4	3	5	
7	6	5	
3	2	3	
4	3	5	
2	4	11	
7	6	8	
4	6	11	
2	6	10	
4	2	3	
5	8	10	
3	5	8	
5	5	9	
3	4	4	
5	5	4	
2	6	12	
6	4	2	
2	4	7	
2	5	5	
3	4	10	
6	5	12	
3	8	9	
4	4	7	
4	4	8	
3	12	6	
6	7	7	
4	6	4	
1	6	6	
3	3	6	
2	7	7	
4	3	7	
3	3	12	
2	7	9	
7	3	10	
2	3	8	
5	10	9	
5	2	10	
5	7	5	
4	8	6	
6	5	7	
0	12	9	
4	3	10	
4	5	7	
7	3	10	
8	4	12	
5	8	9	
3	5	11	
5	6	10	
4	6	2	
2	2	6	
1	7	6	
4	8	7	
2	6	6	
3	6	7	
5	5	10	
4	1	6	
3	8	8	
2	6	10	
5	2	8	
6	4	9	
4	9	6	
4	5	7	
5	1	5	
4	3	8	
1	4	8	
2	6	6	
3	12	4	
4	5	8	
2	3	7	
3	1	6	
0	2	6	
7	5	10	
3	7	9	
3	8	5	
5	6	7	
6	6	8	
0	4	10	
2	4	14	
7	5	10	
5	9	8	
4	7	5	
4	11	4	
4	4	7	
1	4	5	
3	3	7	
3	5	9	
4	4	8	
5	4	8	
4	8	9	
4	7	6	
8	8	5	
5	4	8	
2	5	5	
6	6	7	
2	6	13	
5	5	9	
6	10	10	
6	4	6	
2	5	11	
2	6	8	
7	5	3	
9	5	13	
2	5	16	
6	6	7	
1	7	8	
4	4	7	
0	13	9	
3	5	6	
3	2	9	
6	14	6	
8	2	6	
3	6	2	
5	7	12	
4	5	12	
3	3	8	
4	2	12	
8	6	8	
6	2	4	
3	7	9	
3	4	5	
1	5	5	
4	6	10	
3	5	7	
3	4	12	
2	8	5	
2	7	12	
7	5	7	
2	3	8	
7	5	4	
6	6	9	
2	6	5	
5	6	8	
5	8	5	
2	10	10	
1	4	5	
4	6	6	
2	10	11	
4	3	10	
4	6	8	
3	5	4	
1	3	5	
4	4	6	
1	10	1	
2	5	4	
1	5	6	
7	5	7	
1	2	9	
3	1	5	
3	6	7	
5	4	5	
5	4	4	
3	6	6	
5	5	11	
2	8	8	
3	3	8	
2	8	8	
2	3	4	
4	11	5	
3	3	8	
0	9	7	
4	4	7	
2	6	8	
2	4	8	
7	3	7	
6	3	7	
4	6	7	
3	8	7	
2	6	8	
1	5	3	
1	5	7	
3	4	9	
2	10	6	
3	7	10	
4	6	10	
4	4	4	
3	1	9	
2	2	3	
3	8	9	
4	2	6	
4	4	3	
6	7	7	
4	3	8	
2	4	7	
1	5	6	
2	5	9	
5	8	6	
5	5	5	
5	9	6	
5	4	17	
3	4	3	
2	3	12	
5	6	5	
2	2	13	
3	3	7	
3	3	8	
2	7	10	
2	4	4	
4	2	7	
2	5	9	
6	9	13	
2	2	8	
5	6	9	
7	1	1	
4	4	6	
4	7	6	
4	4	4	
5	5	12	
5	6	7	
4	4	7	
5	6	5	
5	5	6	
4	3	5	
3	4	6	
2	8	7	
2	6	5	
8	5	3	
3	11	6	
7	5	13	
4	5	8	
2	6	5	
4	3	6	
2	9	5	
2	9	8	
3	4	5	
6	4	10	
5	4	11	
6	3	7	
4	4	7	
3	1	5	
1	5	7	
10	4	8	
2	6	8	
4	5	10	
3	3	9	
6	4	7	
6	11	3	
4	2	5	
10	7	8	
2	4	15	
2	4	5	
3	12	7	
5	7	5	
3	2	7	
2	3	7	
4	3	5	
3	3	7	
4	5	8	
7	7	8	
3	3	10	
4	2	11	
4	3	6	
5	2	6	
3	1	6	
7	3	9	
6	3	2	
4	8	4	
2	8	9	
6	3	7	
1	2	6	
3	8	13	
4	7	8	
2	4	9	
1	6	3	
1	5	4	
2	4	3	
1	9	10	
3	3	2	
4	2	3	
5	6	8	
3	5	6	
2	4	8	
5	8	11	
5	7	14	
6	6	5	
2	6	5	
3	2	9	
3	6	7	
4	2	12	
4	4	5	
1	1	6	
4	2	7	
5	9	3	
3	7	5	
2	3	14	
3	2	7	
1	3	6	
3	5	9	
3	6	5	
3	6	10	
3	3	5	
5	6	5	
2	5	6	
2	8	7	
5	9	5	
1	3	6	
3	4	6	
3	6	14	
1	3	6	
4	4	7	
2	3	3	
5	8	4	
0	6	4	
4	7	12	
4	7	5	
5	8	12	
4	3	3	
3	11	6	
3	4	6	
3	3	9	
3	5	2	
2	8	10	
3	3	9	
3	7	8	
2	5	8	
1	7	6	
2	2	4	
3	1	9	
4	10	6	
4	4	4	
2	2	4	
2	5	5	
3	5	11	
4	2	7	
3	6	7	
2	4	7	
2	4	8	
3	3	6	
2	4	5	
5	1	8	
3	4	9	
5	2	8	
5	4	9	
6	5	4	
1	3	11	
2	7	6	
7	4	5	
3	4	4	
2	4	7	
4	6	9	
4	6	7	
3	5	8	
1	7	10	
5	5	6	
2	7	11	
2	5	7	
0	6	5	
3	4	8	
2	4	5	
1	4	6	
4	2	10	
1	6	7	
6	7	9	
1	6	4	
2	6	10	
7	4	7	
4	5	5	
1	3	4	
5	6	6	
2	5	4	
3	7	7	
4	7	6	
2	6	5	
5	2	5	
4	9	8	
1	4	3	
3	6	8	
3	6	7	
3	8	5	
3	9	5	
7	5	14	
1	4	8	
2	0	7	
5	1	5	
2	4	7	
4	4	12	
5	5	4	
2	8	5	
0	5	5	
2	5	7	
2	5	3	
3	6	7	
3	5	4	
3	2	12	
2	3	10	
0	3	3	
4	4	2	
3	1	6	
4	3	9	
1	5	7	
4	7	4	
4	4	3	
3	4	4	
3	5	7	
0	3	4	
2	6	6	
8	8	11	
4	3	5	
3	1	5	
5	4	8	
2	5	7	
3	6	11	
1	2	4	
3	11	9	
3	8	10	
3	2	7	
4	3	9	
1	5	7	
4	5	5	
5	2	13	
3	3	4	
1	7	10	
1	2	5	
5	3	7	
1	2	11	
4	2	7	
4	7	5	
2	5	9	
5	8	10	
2	3	9	
2	4	6	
1	4	7	
3	4	6	
3	5	9	
2	3	10	
5	5	7	
3	4	4	
1	6	8	
4	2	8	
0	3	7	
4	4	11	
1	1	8	
1	8	7	
5	5	3	
3	3	5	
4	2	6	
5	3	9	
5	2	3	
2	4	7	
2	4	6	
1	7	4	
2	7	6	
2	2	4	
4	4	8	
4	3	6	
6	3	7	
5	4	6	
2	1	4	
3	5	5	
5	4	7	
3	1	6	
5	4	5	
1	5	11	
3	2	1	
5	5	2	
4	3	4	
1	3	6	
4	6	4	
2	2	9	
5	2	7	
0	5	3	
2	2	10	
1	8	8	
0	2	2	
1	1	7	
2	5	14	
4	2	5	
1	6	6	
1	2	5	
0	5	10	
3	4	6	
3	1	9	
1	5	8	
2	1	6	
1	3	8	
2	3	12	
6	1	14	
3	5	9	
2	6	6	
1	10	9	
3	6	5	
3	3	7	
6	6	4	
3	2	2	
0	4	6	
6	3	6	
2	4	4	
1	7	6	
3	5	5	
6	3	9	
3	6	7	
3	3	5	
1	7	3	
7	3	1	
4	5	8	
0	2	1	
2	3	6	
3	0	5	
2	3	4	
2	4	6	
5	6	8	
5	8	11	
2	6	3	
0	4	6	
5	1	5	
4	3	8	
4	3	8	
2	7	5	
2	4	3	
5	3	4	
5	6	7	
1	2	4	
1	3	5	
6	6	7	
3	4	8	
0	4	4	
1	3	6	
1	3	2	
4	2	7	
5	5	5	
2	3	1	
6	3	8	
3	5	5	
1	8	5	
2	5	9	
1	4	5	
4	4	4	
3	2	6	
2	2	4	
1	1	5	
5	1	8	
0	0	9	
2	6	10	
2	4	10	
3	3	4	
3	6	7	
1	3	10	
2	3	7	
2	2	7	
3	1	7	
4	5	8	
2	6	5	
3	9	3	
8	3	1	
4	5	3	
1	2	6	
4	6	5	
1	2	5	
1	5	3	
2	5	8	
2	6	6	
1	2	5	
3	2	4	
0	5	6	
3	4	5	
2	3	9	
2	3	5	
2	6	9	
1	2	14	
3	1	11	
1	5	9	
5	7	6	
3	5	4	
4	5	6	
3	6	8	
1	3	9	
3	6	6	
2	4	4	
3	5	6	
2	3	9	
2	2	6	
1	3	9	
4	4	10	
2	2	7	
3	5	4	
2	10	4	
3	5	2	
0	2	6	
6	1	4	
3	7	4	
2	4	4	
3	4	4	
3	3	7	
2	5	7	
3	5	4	
4	3	6	
0	1	4	
0	5	10	
3	3	5	
3	4	3	
3	5	6	
4	4	8	
3	13	4	
1	2	5	
4	7	5	
5	3	7	
7	2	7	
3	3	1	
0	5	7	
2	4	5	
1	4	7	
2	3	6	
2	8	8	
1	4	4	
8	7	5	
2	7	7	
1	6	7	
6	1	6	
5	9	1	
3	4	11	
5	2	7	
3	6	8	
5	3	7	
2	3	5	
1	6	8	
3	5	3	
2	5	4	
4	5	4	
2	6	7	
0	4	4	
3	0	4	
1	2	14	
0	1	7	
4	5	8	
2	6	10	
0	5	8	
2	2	5	
2	4	5	
1	1	5	
2	6	5	
2	2	10	
3	4	4	
2	3	8	
3	4	6	
4	7	4	
2	4	10	
2	6	3	
4	4	9	
3	4	4	
2	0	6	
4	4	8	
2	3	5	
2	3	4	
0	5	6	
5	6	4	
2	0	9	
4	7	6	
1	6	6	
4	6	7	
6	5	6	
1	5	4	
3	6	1	
4	4	8	
4	6	8	
5	4	4	
8	4	7	
4	5	6	
2	1	4	
1	4	3	
3	4	6	
5	3	5	
2	2	5	
2	5	4	
6	3	5	
2	1	6	
4	3	2	
5	7	3	
6	5	6	
2	5	5	
4	3	11	
4	4	6	
2	4	6	
0	1	4	
1	6	8	
2	3	6	
1	3	5	
4	5	5	
4	3	7	
3	2	5	
2	5	3	
3	6	8	
3	5	7	
0	2	5	
3	4	5	
2	3	7	
3	6	7	
1	0	2	
4	3	2	
2	7	5	
6	5	5	
3	3	3	
4	4	7	
0	3	2	
3	3	6	
0	7	5	
2	3	5	
2	6	7	
0	5	3	
4	7	9	
0	3	4	
6	4	5	
2	4	5	
5	4	9	
5	5	9	
3	3	7	
5	4	8	
2	3	7	
0	2	3	
5	3	8	
3	7	7	
4	6	6	
2	6	6	
1	1	4	
0	1	4	
1	4	8	
2	5	3	
2	8	3	
1	0	4	
2	2	5	
2	5	8	
4	2	5	
3	4	3	
2	1	3	
2	6	3	
5	1	6	
0	3	2	
6	4	2	
0	4	4	
1	5	6	
2	4	6	
4	2	5	
5	6	4	
3	5	4	
2	5	3	
1	3	5	
2	5	5	
3	1	4	
1	3	3	
2	5	5	
4	6	9	
2	8	4	
3	4	5	
3	2	5	
3	4	7	
2	3	5	
3	5	12	
2	4	2	
6	6	3	
2	4	3	
2	4	6	
5	2	3	
2	4	2	
1	5	2	
1	2	7	
2	2	4	
3	3	7	
0	2	4	
2	1	9	
3	5	4	
7	4	10	
6	3	5	
2	3	3	
4	2	8	
3	3	7	
0	2	4	
1	3	6	
0	5	6	
0	2	12	
5	4	5	
0	0	4	
4	6	6	
3	2	4	
0	3	3	
6	6	6	
5	4	8	
1	5	5	
0	3	4	
2	2	6	
4	4	6	
4	5	4	
2	1	3	
2	4	3	
0	2	3	
1	2	4	
1	0	6	
3	3	4	
0	3	5	
2	5	2	
2	5	12	
3	3	3	
5	4	5	
1	3	3	
1	1	6	
0	7	6	
4	6	1	
0	9	3	
5	1	9	
1	0	3	
1	5	5	
6	4	6	
2	8	3	
1	4	5	
3	4	7	
2	3	3	
0	1	5	
0	5	4	
1	4	6	
3	0	3	
2	5	9	
5	4	6	
4	2	5	
2	4	13	
1	2	5	
1	2	6	
1	5	2	
8	6	5	
1	5	4	
2	6	6	
2	4	9	
1	4	8	
5	6	8	
2	5	2	
4	4	4	
4	5	6	
4	6	6	
2	2	12	
2	3	3	
1	2	5	
