#PicoHarp 300  Histogram Data			03/28/2023 11:55:03 AM
#channels per curve
15625
#display curve no.
0	1	2	
#memory block no.
0	1	2	
#ns/channel
0.1280	0.1280	0.1280	
#counts
0	1	5	
0	1	11	
0	1	9	
0	1	5	
1	0	7	
0	0	5	
1	0	5	
0	0	6	
1	3	5	
1	0	6	
0	0	6	
0	0	6	
0	0	5	
0	1	9	
0	0	4	
0	1	6	
0	1	9	
0	2	6	
1	1	4	
0	1	5	
0	0	5	
0	0	4	
0	2	5	
1	1	8	
0	0	4	
0	1	5	
0	1	5	
2	0	2	
0	0	6	
0	2	2	
2	1	8	
1	2	7	
1	1	4	
0	0	11	
1	3	7	
0	3	7	
0	1	2	
0	0	3	
0	1	8	
0	0	4	
0	0	6	
0	0	3	
0	0	9	
0	2	6	
0	1	3	
1	1	6	
0	2	3	
0	1	5	
1	3	2	
2	2	4	
0	0	9	
2	0	5	
0	0	3	
1	1	5	
0	0	5	
0	3	5	
0	3	10	
0	0	10	
1	2	3	
1	1	5	
0	2	4	
1	2	3	
0	1	5	
0	0	12	
0	2	7	
2	1	3	
0	3	7	
3	0	10	
3	6	8	
11	5	10	
19	20	23	
20	27	37	
37	37	66	
49	49	86	
46	71	92	
65	72	100	
95	92	91	
88	89	75	
67	85	98	
90	88	93	
99	71	77	
93	98	77	
77	75	91	
85	83	80	
80	86	87	
89	75	71	
71	79	86	
70	100	72	
76	73	70	
96	75	90	
88	73	69	
91	74	62	
72	69	76	
100	78	53	
76	80	85	
99	74	70	
79	79	72	
86	89	70	
78	74	81	
79	77	82	
69	79	74	
73	77	58	
85	90	79	
75	59	65	
75	79	69	
77	80	69	
82	66	61	
100	75	66	
79	67	77	
89	68	70	
80	73	87	
70	71	74	
69	56	64	
64	71	66	
79	60	60	
79	55	72	
62	65	63	
84	58	57	
74	72	71	
90	94	83	
84	79	67	
71	79	71	
80	72	75	
57	72	72	
71	75	89	
58	72	66	
76	68	47	
81	69	65	
64	60	70	
64	63	78	
60	63	70	
66	68	83	
62	72	52	
64	73	70	
58	62	63	
60	65	66	
57	63	74	
76	87	74	
65	80	70	
74	63	65	
63	74	65	
64	59	67	
78	53	62	
60	64	69	
74	65	74	
63	63	68	
73	61	60	
78	60	62	
89	68	71	
63	54	60	
78	59	66	
57	55	67	
59	77	66	
66	64	66	
68	55	60	
72	71	66	
70	67	57	
70	52	62	
61	72	78	
63	70	73	
71	49	62	
59	57	68	
67	50	68	
65	57	63	
61	81	44	
82	60	67	
62	59	59	
65	73	55	
62	65	71	
57	64	70	
47	73	52	
52	62	69	
83	54	55	
65	54	72	
80	57	56	
43	51	69	
62	82	57	
70	50	57	
70	53	64	
60	61	54	
61	60	61	
78	63	72	
59	70	70	
50	64	51	
56	60	62	
61	68	68	
69	75	54	
57	69	72	
72	46	48	
59	71	63	
68	62	65	
54	68	63	
67	64	75	
52	63	74	
55	58	63	
65	68	65	
74	69	69	
47	66	49	
63	44	57	
67	71	70	
74	73	57	
65	50	58	
63	52	62	
71	62	77	
62	65	78	
56	62	55	
58	55	55	
64	66	50	
71	61	76	
72	46	57	
63	65	69	
57	63	59	
62	60	58	
65	71	71	
69	53	44	
62	57	60	
61	54	63	
64	51	64	
63	64	52	
62	58	68	
70	50	57	
60	60	49	
58	57	77	
58	60	52	
47	58	76	
52	69	66	
47	49	45	
59	52	63	
58	60	79	
54	53	72	
52	58	47	
71	64	62	
63	53	58	
55	71	68	
64	62	55	
50	70	61	
51	63	71	
59	62	70	
59	62	49	
49	50	54	
65	45	74	
58	58	58	
36	48	61	
43	51	53	
62	59	54	
58	55	51	
47	62	67	
49	69	61	
61	49	65	
57	58	50	
61	60	47	
62	46	74	
55	53	47	
67	67	80	
50	47	47	
48	60	56	
53	57	65	
55	51	61	
70	51	55	
60	51	61	
55	48	62	
57	70	47	
52	44	73	
56	58	55	
48	62	53	
45	48	51	
47	57	52	
57	67	69	
54	49	56	
60	60	79	
50	51	65	
70	55	56	
54	64	55	
64	51	60	
63	52	56	
61	53	61	
57	45	66	
51	44	58	
49	43	46	
53	58	55	
53	44	49	
56	53	62	
50	63	63	
49	52	59	
45	64	69	
53	47	61	
54	56	72	
57	52	79	
65	50	58	
59	54	66	
45	53	52	
50	53	56	
62	59	73	
47	48	54	
43	48	70	
65	41	57	
54	53	43	
47	56	61	
47	60	60	
66	50	49	
50	48	62	
56	50	50	
62	56	64	
41	52	52	
52	36	61	
59	54	69	
53	52	59	
39	57	47	
59	50	70	
40	55	55	
62	43	58	
47	62	57	
50	58	56	
38	50	51	
43	64	72	
49	54	61	
54	53	54	
49	49	52	
48	57	53	
39	49	44	
51	64	54	
62	51	50	
41	65	72	
47	35	62	
60	46	59	
39	50	67	
50	53	46	
43	50	39	
39	55	60	
47	52	69	
57	41	66	
35	48	61	
52	53	60	
59	48	70	
49	48	62	
56	51	56	
61	49	63	
48	63	52	
50	44	60	
54	51	55	
54	51	50	
48	54	68	
43	48	64	
47	45	62	
41	53	59	
59	56	45	
52	52	71	
44	52	51	
52	55	67	
36	39	64	
52	38	56	
41	53	57	
56	56	53	
52	48	70	
41	51	61	
33	57	56	
47	64	51	
40	36	51	
59	42	57	
46	52	58	
61	54	57	
45	47	50	
48	37	58	
53	50	72	
59	49	62	
52	43	58	
44	33	69	
52	40	58	
45	51	61	
42	49	65	
32	43	60	
47	43	51	
55	40	53	
38	57	66	
49	48	65	
47	50	46	
41	62	55	
50	50	53	
44	43	63	
58	63	56	
49	62	56	
60	51	59	
51	53	61	
44	41	48	
41	41	62	
36	53	51	
56	44	60	
41	46	37	
44	52	60	
51	34	56	
48	43	56	
40	56	61	
45	52	51	
48	51	52	
29	55	57	
43	52	52	
59	44	57	
51	48	55	
36	51	52	
51	43	60	
52	52	53	
42	59	51	
46	37	55	
41	46	51	
40	44	64	
64	45	54	
38	56	65	
41	46	52	
44	41	58	
49	58	60	
54	47	61	
53	36	59	
32	54	57	
39	57	44	
37	52	57	
37	38	48	
44	59	43	
34	50	56	
34	41	47	
42	58	65	
46	43	50	
55	53	48	
39	44	64	
48	43	59	
47	47	68	
35	48	73	
29	40	41	
34	52	52	
55	42	48	
33	49	55	
44	40	66	
39	42	55	
49	42	57	
42	48	60	
45	47	52	
49	49	62	
50	42	48	
42	41	63	
47	43	48	
51	43	58	
51	45	60	
43	54	47	
41	51	60	
38	35	52	
32	38	41	
44	42	42	
41	52	67	
50	51	61	
41	42	49	
40	50	57	
41	45	50	
36	39	62	
33	45	63	
46	55	56	
41	40	50	
48	50	62	
43	41	53	
31	44	48	
52	47	50	
38	46	64	
37	37	48	
40	49	47	
44	37	55	
40	51	51	
39	42	38	
43	42	57	
32	60	51	
34	46	46	
51	55	49	
40	60	65	
44	32	48	
34	45	43	
41	42	54	
36	43	59	
58	22	56	
34	44	48	
44	44	57	
42	40	47	
41	41	46	
46	40	53	
47	34	41	
45	53	62	
41	51	63	
62	51	58	
30	46	47	
51	35	37	
54	41	54	
44	41	53	
36	51	45	
35	45	51	
46	56	56	
36	44	44	
34	34	46	
31	40	61	
38	28	52	
43	34	42	
50	40	51	
46	41	59	
36	32	46	
32	45	55	
44	48	57	
41	39	56	
50	33	59	
37	44	55	
34	43	46	
33	47	52	
30	32	54	
49	39	41	
32	51	68	
36	41	58	
32	51	57	
43	32	45	
31	43	46	
33	40	55	
44	46	62	
46	49	45	
42	47	44	
37	46	53	
34	39	74	
38	35	50	
28	33	60	
36	40	53	
55	47	60	
41	41	49	
55	40	57	
41	42	53	
34	34	56	
29	38	58	
35	33	54	
35	35	46	
36	34	45	
29	47	45	
42	41	48	
20	41	55	
38	36	44	
43	35	45	
36	36	66	
40	32	49	
30	42	61	
42	40	57	
28	45	56	
51	45	53	
32	28	59	
34	30	51	
22	52	60	
41	47	47	
52	41	45	
49	42	60	
48	44	39	
40	44	33	
34	41	55	
28	40	46	
34	37	57	
40	52	42	
34	47	61	
40	50	52	
31	35	56	
28	45	54	
36	33	52	
27	46	72	
43	50	46	
39	33	57	
33	32	46	
31	36	54	
27	31	58	
35	46	56	
41	40	52	
26	38	55	
35	36	48	
40	44	45	
35	31	50	
31	31	44	
26	35	53	
35	34	40	
36	45	50	
28	33	48	
32	38	58	
38	39	51	
34	32	49	
40	36	49	
32	39	52	
40	46	57	
30	35	54	
44	44	45	
41	35	55	
41	38	48	
25	41	49	
39	50	53	
45	37	53	
34	40	51	
36	25	48	
31	31	62	
46	37	42	
40	38	55	
26	56	64	
31	32	52	
42	65	45	
26	37	50	
39	33	45	
38	35	50	
35	45	46	
36	41	48	
25	29	40	
40	33	64	
43	31	49	
37	45	63	
32	33	55	
39	38	42	
24	31	47	
45	42	49	
30	34	61	
40	33	42	
39	39	45	
36	23	41	
37	24	52	
37	43	41	
40	28	52	
40	39	33	
38	42	42	
30	25	57	
36	30	48	
35	32	47	
38	27	47	
38	35	53	
28	29	62	
33	41	51	
40	29	44	
36	36	56	
40	37	56	
32	36	47	
47	39	42	
37	48	50	
40	41	47	
23	34	46	
34	36	56	
34	33	41	
25	47	43	
31	30	61	
31	39	67	
32	48	52	
40	39	39	
37	32	52	
28	35	44	
32	32	45	
36	31	40	
43	43	57	
30	43	44	
28	26	46	
32	43	48	
30	32	62	
26	30	54	
28	36	54	
22	43	62	
41	50	48	
31	42	50	
33	42	47	
18	31	54	
35	42	56	
24	34	52	
28	39	37	
34	32	69	
43	26	48	
25	42	39	
37	45	51	
29	24	48	
27	37	54	
37	35	48	
28	32	50	
27	30	49	
36	31	45	
28	33	38	
40	33	58	
34	37	48	
31	30	45	
27	31	59	
33	36	41	
32	32	45	
38	31	48	
28	34	41	
23	41	44	
30	32	39	
26	26	35	
41	32	47	
19	33	47	
25	30	53	
31	35	41	
20	24	42	
37	34	32	
27	41	53	
25	38	50	
25	30	47	
34	37	46	
32	31	53	
29	41	56	
22	37	55	
32	38	49	
29	36	55	
26	26	49	
33	29	51	
35	29	45	
27	42	53	
33	20	47	
34	32	49	
29	40	45	
19	36	55	
27	34	44	
29	23	49	
25	43	43	
29	31	54	
33	34	55	
33	24	43	
30	37	51	
19	34	46	
25	29	41	
23	32	57	
29	30	54	
29	29	44	
28	33	32	
32	26	55	
29	33	39	
31	41	55	
24	23	41	
34	41	58	
34	35	34	
25	35	48	
18	24	50	
23	29	44	
42	18	50	
31	27	29	
30	34	53	
22	25	43	
35	39	42	
31	27	39	
36	29	39	
24	26	50	
29	38	55	
25	40	48	
23	29	47	
25	22	50	
22	31	55	
21	34	48	
25	30	45	
36	36	49	
27	35	58	
26	34	45	
23	35	53	
28	29	38	
26	21	49	
23	27	42	
27	31	61	
25	36	50	
36	29	47	
23	31	44	
24	30	43	
23	40	45	
30	30	51	
31	30	55	
28	22	49	
26	37	44	
25	35	44	
25	38	51	
19	34	44	
26	44	41	
32	31	44	
31	32	54	
41	32	44	
34	37	51	
30	37	41	
31	34	30	
19	32	52	
24	36	58	
27	30	39	
34	29	54	
36	31	43	
18	27	44	
26	42	51	
21	27	37	
33	30	47	
17	29	38	
19	24	44	
19	37	37	
25	27	47	
31	34	47	
26	35	48	
27	15	43	
34	25	48	
25	25	56	
33	31	53	
32	23	47	
24	38	57	
36	28	32	
28	36	60	
29	26	57	
27	35	57	
24	25	58	
23	38	33	
36	37	54	
26	37	55	
29	33	50	
29	24	42	
27	25	56	
39	41	33	
38	30	61	
33	22	65	
27	33	48	
21	26	44	
22	29	45	
33	26	48	
21	19	54	
32	23	41	
23	23	56	
25	25	52	
26	29	46	
23	31	39	
30	23	39	
20	25	57	
31	30	50	
22	30	49	
26	28	50	
20	26	48	
28	24	52	
20	35	42	
27	35	37	
20	29	44	
31	35	47	
31	45	43	
22	21	46	
22	43	41	
29	27	41	
32	37	53	
24	25	60	
29	23	46	
27	34	51	
20	36	46	
39	28	38	
24	27	67	
23	38	47	
30	35	39	
25	29	49	
17	29	50	
23	24	43	
35	33	46	
20	38	58	
29	27	59	
28	38	45	
29	35	44	
35	41	50	
27	31	45	
35	31	46	
22	37	51	
27	36	50	
21	36	37	
30	21	50	
22	23	46	
33	26	35	
22	23	40	
35	34	46	
26	30	47	
19	35	43	
35	23	40	
27	29	49	
22	33	50	
17	33	44	
22	34	40	
29	32	49	
27	31	33	
24	29	51	
28	28	38	
23	30	53	
23	31	36	
22	31	42	
30	34	37	
25	30	39	
28	26	35	
22	30	43	
29	24	43	
30	32	48	
18	20	45	
22	29	46	
30	25	42	
27	33	58	
23	23	43	
17	35	45	
26	16	44	
25	21	47	
23	32	43	
26	33	39	
23	20	56	
32	19	42	
34	21	44	
24	25	41	
23	27	53	
25	39	51	
27	20	44	
28	32	28	
17	32	36	
21	24	38	
23	33	51	
23	31	56	
32	25	60	
20	26	57	
27	25	41	
25	31	35	
23	32	39	
21	24	40	
19	20	66	
23	29	40	
27	23	47	
30	27	38	
19	22	61	
17	24	51	
21	32	52	
21	20	39	
23	33	49	
24	41	49	
27	29	43	
21	31	43	
31	23	42	
23	28	37	
22	38	50	
18	23	42	
19	29	40	
26	32	42	
22	33	45	
22	18	56	
20	24	58	
24	35	42	
19	15	42	
27	33	45	
18	26	39	
24	24	49	
27	25	36	
18	34	49	
21	23	46	
28	22	45	
22	25	33	
24	26	55	
21	24	42	
17	30	48	
17	27	43	
25	35	44	
22	36	49	
23	37	44	
25	22	44	
24	27	40	
17	38	44	
20	20	51	
18	30	52	
19	26	34	
26	27	55	
21	35	52	
37	26	38	
26	34	41	
28	23	36	
24	36	51	
25	22	43	
27	30	54	
25	21	42	
17	27	45	
21	31	38	
24	28	43	
21	24	47	
27	23	56	
32	34	39	
19	24	52	
20	27	48	
15	29	44	
21	21	32	
16	32	34	
24	36	40	
26	28	46	
21	24	47	
23	27	46	
31	29	49	
24	30	43	
24	29	48	
26	29	32	
31	29	54	
34	20	35	
26	21	45	
25	22	49	
22	35	51	
26	28	45	
28	26	49	
16	39	60	
21	24	50	
25	36	45	
21	16	48	
27	30	47	
16	30	39	
28	26	48	
29	22	36	
23	27	46	
20	26	45	
18	20	43	
21	30	43	
25	28	43	
22	24	39	
21	30	30	
22	30	42	
24	38	44	
21	21	53	
17	32	62	
25	26	34	
14	23	46	
21	18	50	
15	28	49	
13	23	32	
31	19	38	
18	20	41	
25	20	40	
19	31	37	
20	27	49	
22	20	43	
25	33	37	
23	26	50	
23	26	51	
29	30	38	
26	32	39	
20	25	41	
20	21	45	
19	23	49	
33	21	44	
24	24	37	
19	26	49	
20	25	46	
14	25	52	
16	18	43	
19	25	45	
19	22	40	
25	35	49	
16	31	58	
26	29	42	
22	29	37	
23	26	34	
16	21	32	
17	28	39	
22	20	44	
38	24	44	
20	21	31	
17	26	60	
19	32	30	
22	23	43	
18	24	45	
17	23	49	
22	32	30	
14	27	44	
24	22	40	
17	28	52	
11	27	38	
22	28	40	
19	24	51	
24	26	57	
21	20	36	
16	27	46	
16	20	52	
19	25	48	
20	26	48	
21	26	38	
22	24	52	
29	25	39	
23	28	43	
22	20	48	
19	32	33	
16	26	50	
25	25	46	
15	26	41	
20	26	48	
15	26	49	
29	32	43	
26	26	54	
30	31	43	
21	23	31	
27	24	36	
18	23	49	
29	18	44	
20	21	31	
33	28	50	
20	15	40	
11	23	44	
16	26	48	
23	28	41	
21	32	37	
19	23	39	
13	23	53	
18	22	43	
10	21	36	
19	12	47	
24	26	44	
26	32	43	
23	25	39	
17	17	34	
14	25	29	
11	26	37	
24	19	45	
17	16	38	
22	37	43	
16	22	44	
12	24	44	
21	38	36	
16	24	40	
16	21	35	
22	24	36	
20	26	33	
26	34	45	
22	35	33	
27	18	52	
21	31	43	
12	28	39	
19	26	35	
15	19	39	
19	31	39	
15	33	33	
18	29	36	
19	24	45	
16	28	36	
17	16	56	
26	21	47	
19	28	41	
29	25	51	
17	21	44	
20	35	46	
18	18	44	
19	34	46	
22	27	40	
25	20	35	
21	20	40	
17	26	46	
22	21	34	
23	32	51	
16	20	32	
14	17	52	
20	29	44	
34	17	45	
26	29	29	
15	19	34	
14	24	44	
17	28	42	
24	28	44	
27	21	39	
26	26	47	
13	14	48	
18	18	41	
26	18	50	
16	22	43	
20	25	48	
16	24	42	
20	19	42	
24	17	37	
16	28	45	
20	30	42	
17	18	30	
19	27	38	
21	25	48	
17	29	41	
14	24	55	
23	17	41	
27	15	42	
17	30	46	
17	16	34	
28	20	45	
16	32	39	
16	23	38	
16	22	40	
23	26	38	
27	23	52	
20	16	33	
21	29	45	
24	20	41	
20	13	42	
18	27	57	
18	22	43	
20	26	34	
21	27	33	
18	21	52	
33	23	37	
18	20	42	
17	28	34	
22	37	38	
18	19	54	
17	16	35	
11	29	32	
18	29	33	
25	24	36	
22	24	42	
20	26	32	
18	17	43	
14	20	30	
19	23	29	
23	15	42	
21	18	39	
19	21	53	
18	21	39	
14	21	37	
22	25	39	
16	25	50	
17	23	24	
24	18	37	
18	26	39	
19	22	32	
13	31	42	
11	19	41	
20	25	44	
12	34	48	
15	24	39	
24	23	45	
19	24	53	
16	19	39	
19	22	34	
20	20	41	
15	29	44	
24	19	55	
20	18	40	
23	17	39	
18	16	44	
15	32	42	
16	20	47	
17	27	33	
20	19	30	
20	20	55	
13	22	34	
9	13	40	
21	21	50	
23	18	46	
13	15	50	
19	29	47	
18	18	37	
14	29	40	
14	24	40	
25	17	46	
25	29	50	
18	25	41	
16	22	36	
19	22	41	
17	18	54	
13	19	53	
17	28	36	
20	20	41	
16	21	40	
17	18	56	
13	20	38	
30	24	40	
18	26	47	
23	24	46	
20	18	44	
16	22	47	
19	28	42	
14	17	41	
17	23	41	
13	22	52	
16	23	46	
16	28	38	
18	17	32	
14	30	38	
17	20	39	
19	22	45	
21	21	45	
20	23	46	
19	21	36	
18	18	36	
23	20	34	
19	21	50	
22	25	43	
13	18	46	
20	21	42	
18	26	41	
13	16	34	
26	17	44	
16	24	31	
15	30	40	
26	28	35	
17	17	29	
12	21	40	
18	23	30	
18	16	40	
20	16	35	
17	19	41	
11	21	38	
25	22	40	
20	20	39	
17	18	36	
10	22	50	
11	20	41	
12	16	47	
15	22	54	
19	27	43	
23	26	47	
21	26	48	
14	33	29	
18	24	42	
18	16	47	
22	24	33	
11	23	36	
13	19	29	
23	21	32	
13	24	41	
18	24	40	
19	12	36	
16	22	30	
26	28	34	
21	28	49	
17	14	45	
12	18	41	
15	21	42	
23	18	42	
17	18	57	
19	22	35	
21	20	36	
20	20	33	
20	23	37	
9	17	51	
12	17	45	
20	18	34	
19	22	41	
9	23	50	
21	21	27	
17	25	40	
11	24	40	
17	24	40	
15	18	48	
14	21	25	
22	21	42	
18	20	37	
20	19	43	
16	19	22	
19	27	37	
25	10	37	
19	23	33	
10	14	44	
14	22	41	
13	12	35	
18	25	40	
21	24	42	
16	18	41	
12	24	31	
13	18	33	
18	17	46	
16	24	43	
12	26	47	
13	33	46	
20	20	31	
11	14	43	
11	14	30	
6	22	45	
15	27	39	
12	24	54	
19	13	37	
21	20	33	
15	20	36	
18	19	35	
12	20	40	
21	19	36	
10	23	38	
8	9	25	
12	20	36	
10	19	30	
16	25	32	
21	22	36	
15	17	42	
19	18	43	
20	27	45	
17	16	25	
9	18	34	
19	13	42	
13	15	38	
19	23	41	
20	30	42	
20	19	39	
15	21	49	
15	19	48	
18	21	35	
26	17	39	
16	21	38	
12	19	44	
20	14	33	
8	16	43	
13	23	32	
18	17	45	
17	15	48	
16	24	36	
11	16	43	
10	16	34	
20	12	46	
19	17	40	
17	27	35	
20	18	35	
20	21	55	
24	25	42	
18	19	31	
15	23	37	
16	19	36	
15	27	32	
15	13	37	
16	17	45	
16	27	35	
15	19	39	
14	19	40	
18	23	34	
18	17	50	
14	24	39	
13	20	37	
17	19	37	
15	21	40	
13	21	45	
19	30	50	
18	26	35	
16	16	36	
15	17	32	
15	18	35	
21	18	37	
19	19	36	
21	13	40	
14	13	40	
18	25	42	
13	22	37	
13	13	41	
7	19	27	
16	19	31	
18	31	33	
12	17	38	
20	19	47	
19	16	32	
20	13	41	
24	20	40	
17	20	33	
14	33	56	
10	25	29	
15	18	29	
23	18	42	
19	17	39	
10	22	33	
16	19	49	
8	21	43	
16	10	48	
23	24	37	
16	13	35	
11	17	39	
16	15	38	
21	13	41	
12	13	34	
18	18	35	
12	13	25	
20	8	33	
11	24	40	
11	15	42	
21	20	39	
23	16	35	
21	19	39	
18	17	40	
14	16	31	
17	21	28	
12	28	45	
19	17	44	
11	19	31	
14	24	42	
18	18	45	
13	19	32	
13	17	39	
12	23	39	
8	19	20	
14	22	48	
12	22	52	
18	23	36	
14	10	31	
21	22	26	
18	21	43	
16	26	32	
12	20	30	
14	18	44	
11	25	35	
8	17	37	
18	26	29	
9	20	47	
10	24	33	
15	19	41	
13	30	24	
13	24	46	
16	21	41	
13	19	39	
12	20	37	
10	17	33	
15	18	42	
19	25	38	
17	21	37	
17	26	37	
13	18	50	
8	17	34	
12	25	40	
15	19	28	
20	22	40	
15	20	36	
15	13	38	
16	18	35	
14	21	35	
16	23	25	
14	21	40	
11	16	35	
10	21	33	
16	15	33	
11	25	50	
16	20	37	
13	21	34	
11	18	44	
12	20	25	
7	14	35	
15	21	35	
10	17	42	
14	19	41	
18	16	33	
5	18	29	
12	19	26	
8	15	31	
13	19	38	
23	16	24	
12	20	47	
8	20	40	
11	17	33	
11	18	47	
15	28	30	
15	11	44	
15	20	34	
15	15	32	
16	17	37	
10	15	38	
16	20	24	
23	15	42	
11	20	39	
7	14	37	
8	12	42	
11	18	30	
16	16	44	
14	13	43	
14	23	39	
14	15	33	
16	21	39	
13	19	27	
17	15	38	
17	18	45	
10	22	47	
11	23	41	
9	23	39	
12	18	36	
11	21	35	
10	11	33	
17	13	26	
17	13	36	
20	19	34	
14	16	34	
18	16	30	
16	16	43	
16	18	42	
11	22	44	
11	8	26	
19	13	31	
11	14	29	
11	14	44	
14	18	37	
11	23	45	
9	11	33	
15	23	35	
17	21	40	
15	21	32	
14	18	26	
16	18	27	
11	11	30	
12	21	42	
18	18	33	
22	27	42	
11	16	31	
23	14	35	
11	16	39	
16	19	46	
10	16	38	
14	23	33	
13	13	43	
14	18	45	
11	15	34	
15	14	36	
7	15	27	
9	15	35	
17	16	41	
14	17	40	
12	19	39	
19	12	32	
16	21	36	
16	18	28	
10	21	24	
16	14	41	
14	21	32	
19	18	30	
7	12	32	
9	23	35	
19	18	35	
11	20	45	
12	29	31	
15	22	35	
14	10	27	
8	16	41	
16	17	32	
14	19	33	
8	18	28	
12	17	30	
15	21	32	
18	16	44	
11	20	34	
13	20	32	
13	12	38	
17	24	44	
12	17	31	
9	23	39	
11	12	32	
8	9	34	
16	22	18	
11	16	35	
14	15	40	
9	18	41	
9	9	38	
13	20	29	
13	19	30	
10	14	33	
10	21	34	
8	19	43	
7	18	33	
11	15	31	
7	15	34	
10	10	39	
9	11	22	
11	16	40	
10	12	29	
16	16	43	
15	20	36	
12	18	30	
16	15	37	
14	24	32	
20	13	31	
18	12	32	
11	8	33	
14	16	38	
9	10	28	
12	15	44	
23	14	34	
14	17	33	
15	10	45	
9	14	43	
16	10	41	
8	9	32	
10	16	36	
17	12	36	
12	12	25	
18	12	47	
11	14	37	
14	20	34	
19	16	33	
10	18	40	
13	20	33	
11	24	39	
16	16	30	
6	22	41	
9	17	40	
6	20	37	
11	10	37	
11	17	31	
10	13	32	
8	19	31	
9	17	35	
12	13	45	
8	19	34	
15	21	36	
15	13	35	
12	22	28	
12	11	35	
14	14	30	
11	10	39	
10	17	40	
10	13	32	
18	19	32	
13	16	32	
17	23	35	
14	15	41	
13	15	25	
10	21	26	
16	15	48	
17	16	40	
12	14	33	
9	16	35	
6	13	46	
13	22	35	
20	19	33	
14	9	29	
10	23	41	
11	17	26	
11	13	33	
8	13	34	
10	17	33	
13	22	39	
11	25	36	
15	15	38	
11	24	35	
6	16	31	
15	15	39	
11	18	31	
10	16	39	
9	16	36	
7	17	34	
9	25	42	
19	17	28	
9	13	38	
18	16	41	
10	13	36	
16	10	31	
12	14	43	
15	13	30	
17	15	47	
11	15	45	
7	15	31	
15	13	38	
8	12	31	
10	18	46	
11	20	35	
8	10	39	
12	9	48	
10	17	27	
9	21	36	
21	8	36	
10	12	42	
11	14	33	
11	15	32	
11	22	33	
8	26	25	
11	21	36	
11	17	33	
14	13	39	
14	23	38	
18	15	34	
12	13	36	
13	13	40	
16	13	43	
10	13	37	
8	13	43	
9	13	26	
17	15	34	
8	17	32	
11	20	29	
17	15	28	
12	19	33	
13	12	26	
9	15	39	
8	15	32	
12	6	27	
11	16	41	
5	10	24	
10	17	39	
20	16	36	
13	10	29	
9	16	32	
9	13	36	
11	16	28	
13	11	26	
9	15	44	
15	2	36	
19	12	29	
11	21	40	
9	15	29	
8	13	44	
13	13	25	
20	14	32	
11	17	31	
13	10	31	
18	15	35	
17	17	32	
10	11	26	
9	15	41	
9	23	40	
15	14	39	
4	17	34	
12	21	33	
8	14	44	
13	10	35	
9	22	29	
12	12	26	
8	20	38	
5	19	42	
7	15	26	
15	19	33	
15	9	38	
16	18	35	
14	11	35	
14	18	36	
8	16	26	
9	17	30	
12	18	27	
11	14	36	
15	20	44	
1	18	42	
11	13	33	
11	12	34	
22	14	42	
13	13	49	
10	13	34	
11	11	31	
16	16	40	
14	17	45	
11	15	47	
9	8	29	
11	18	27	
10	21	23	
14	16	31	
13	13	27	
4	12	29	
17	17	36	
7	13	30	
11	16	32	
8	14	26	
10	13	39	
8	14	34	
14	11	32	
8	8	38	
10	16	33	
8	24	35	
9	13	27	
8	15	27	
12	16	30	
18	20	29	
10	11	37	
12	7	29	
14	11	34	
9	11	45	
13	19	31	
11	16	31	
14	11	35	
13	15	33	
11	16	29	
13	7	32	
17	18	30	
12	9	28	
9	15	33	
12	11	36	
9	11	37	
9	15	34	
13	11	37	
9	22	31	
11	16	26	
8	8	37	
10	11	30	
19	16	29	
9	27	34	
14	13	31	
5	14	26	
11	16	33	
9	16	37	
12	20	40	
12	15	30	
7	10	35	
8	14	42	
6	9	31	
10	16	36	
11	13	37	
8	17	26	
10	17	30	
9	15	35	
9	15	31	
12	9	38	
12	11	22	
16	18	31	
15	10	34	
12	16	32	
16	9	35	
8	13	27	
11	13	29	
13	17	40	
10	16	17	
18	15	35	
7	15	36	
13	19	27	
13	15	31	
17	11	27	
14	15	34	
6	11	33	
7	15	39	
14	10	41	
9	11	38	
11	14	32	
9	10	32	
13	14	30	
12	14	23	
12	19	26	
10	13	27	
9	14	31	
13	19	26	
9	9	29	
7	10	35	
7	11	37	
13	17	29	
9	15	34	
6	9	32	
10	11	38	
12	13	44	
15	16	33	
7	14	32	
12	16	35	
13	13	22	
11	14	33	
13	24	31	
14	12	42	
10	20	42	
6	15	28	
16	19	32	
9	14	30	
13	18	23	
7	13	27	
14	13	44	
12	21	34	
16	16	29	
7	14	41	
8	16	37	
12	10	29	
9	16	31	
12	10	38	
6	13	29	
8	13	31	
9	18	43	
11	16	30	
8	9	31	
7	17	28	
9	17	25	
7	12	27	
8	13	42	
5	9	33	
8	17	30	
13	15	28	
8	13	35	
7	7	38	
10	12	31	
8	11	35	
13	13	31	
10	17	33	
10	12	40	
4	26	38	
11	16	33	
5	18	24	
9	13	35	
11	13	33	
11	13	42	
8	17	28	
6	16	25	
11	13	27	
7	13	31	
10	12	27	
15	9	29	
7	9	34	
7	14	33	
10	12	33	
11	20	31	
9	10	33	
6	12	32	
12	14	27	
7	7	22	
3	15	27	
8	10	38	
9	12	42	
11	11	27	
7	15	31	
8	11	26	
7	10	28	
11	15	25	
16	9	35	
13	15	34	
7	13	37	
4	15	35	
8	13	24	
11	13	41	
12	7	37	
5	17	34	
11	12	21	
13	7	35	
8	17	32	
5	15	37	
12	14	42	
11	13	32	
10	11	32	
10	12	38	
7	12	33	
13	11	32	
7	20	33	
11	12	25	
9	14	33	
11	19	30	
15	18	26	
7	13	34	
7	9	38	
6	17	29	
10	16	37	
9	10	36	
7	17	36	
13	11	31	
12	12	34	
11	11	27	
9	8	37	
11	12	33	
11	11	25	
17	9	37	
7	10	31	
8	13	35	
9	12	28	
11	13	31	
5	12	34	
8	10	35	
10	18	29	
7	15	28	
9	14	26	
13	17	25	
10	13	35	
10	10	32	
8	9	30	
7	14	26	
11	9	35	
13	12	26	
12	17	32	
16	9	33	
5	15	23	
10	15	38	
10	10	37	
8	13	32	
7	16	32	
12	10	33	
13	11	38	
6	11	23	
8	13	25	
13	14	26	
14	17	39	
7	12	30	
5	9	21	
10	12	33	
14	9	35	
8	6	32	
4	12	35	
5	14	36	
7	13	32	
7	13	34	
12	7	34	
12	12	28	
11	8	26	
7	12	34	
8	17	36	
5	11	36	
12	11	29	
9	9	22	
5	13	29	
4	7	43	
11	9	33	
3	10	31	
7	14	26	
8	15	41	
12	11	38	
8	12	37	
14	8	29	
4	14	46	
5	9	29	
6	18	26	
7	14	35	
15	18	49	
6	8	33	
8	15	37	
3	14	34	
5	14	33	
5	12	24	
9	19	33	
6	9	28	
6	16	23	
13	13	36	
11	11	28	
10	9	28	
14	12	27	
9	10	25	
8	14	31	
13	12	33	
10	7	27	
12	14	29	
12	15	28	
10	15	26	
6	9	28	
15	8	39	
11	8	33	
9	13	32	
11	15	26	
4	13	31	
11	5	33	
10	17	28	
9	8	34	
7	12	32	
12	15	18	
7	9	34	
6	9	36	
9	8	29	
8	10	24	
9	10	29	
9	10	30	
8	12	29	
11	11	26	
5	11	36	
5	10	35	
6	21	31	
7	12	34	
9	14	26	
14	12	28	
10	9	27	
11	14	34	
7	13	39	
3	9	32	
7	13	43	
4	12	32	
11	16	32	
6	15	38	
15	22	25	
7	6	39	
8	9	32	
1	11	31	
10	10	29	
10	8	25	
11	13	27	
6	12	35	
8	12	32	
14	12	37	
8	11	25	
8	16	37	
11	6	25	
9	15	35	
8	12	34	
10	10	40	
5	21	28	
11	13	32	
9	9	24	
10	11	22	
11	10	27	
9	14	24	
8	11	38	
12	17	44	
7	9	38	
7	16	25	
6	11	26	
10	7	29	
8	10	34	
9	10	26	
10	11	31	
8	20	31	
10	12	36	
12	16	35	
12	10	31	
7	13	34	
10	14	24	
3	24	18	
9	10	41	
10	9	29	
12	9	44	
10	18	28	
7	19	40	
8	13	29	
5	10	28	
11	13	27	
7	7	29	
11	13	17	
8	9	15	
9	12	24	
11	11	28	
9	12	29	
8	6	28	
13	13	29	
2	5	39	
9	15	31	
6	11	36	
8	10	27	
15	10	31	
2	13	26	
5	13	48	
13	12	25	
6	12	32	
4	12	32	
10	13	42	
6	17	35	
11	16	31	
10	15	29	
4	12	31	
5	17	25	
14	11	26	
9	8	35	
6	10	28	
12	9	25	
3	18	25	
5	7	27	
5	10	25	
6	8	33	
6	8	20	
2	9	31	
10	10	27	
12	10	27	
10	10	34	
4	13	28	
5	12	34	
8	8	33	
8	13	31	
10	14	34	
10	9	28	
6	9	21	
5	11	29	
7	17	26	
5	11	23	
6	11	31	
7	11	24	
7	5	28	
5	11	36	
6	15	37	
14	5	33	
8	12	35	
12	15	35	
9	17	28	
8	10	35	
10	11	36	
7	14	28	
6	12	34	
9	7	28	
11	14	29	
8	19	27	
11	14	20	
5	8	27	
7	19	31	
6	13	34	
6	15	24	
10	14	33	
14	7	30	
11	7	30	
6	11	28	
8	7	33	
9	12	31	
6	13	37	
8	14	20	
7	8	31	
4	15	30	
9	11	20	
10	11	32	
6	11	25	
5	17	25	
9	16	28	
7	10	36	
9	13	24	
12	13	31	
5	6	25	
6	10	32	
4	10	33	
11	16	31	
9	10	22	
5	17	28	
7	16	23	
11	9	41	
13	8	21	
2	6	29	
10	10	30	
10	13	28	
5	10	25	
9	10	31	
7	9	20	
9	5	35	
9	8	28	
8	10	35	
2	14	29	
8	8	33	
11	14	39	
10	7	15	
6	13	19	
12	10	16	
7	15	21	
4	9	34	
7	9	24	
8	8	30	
9	13	30	
10	7	26	
7	16	39	
5	14	31	
9	13	42	
10	14	24	
5	12	37	
5	11	35	
9	14	31	
3	8	34	
6	15	33	
11	11	31	
8	14	34	
5	9	32	
6	8	21	
10	11	32	
10	14	30	
5	7	31	
9	12	25	
7	12	21	
6	6	33	
9	14	34	
6	8	26	
9	9	27	
9	7	31	
8	11	27	
5	9	24	
8	11	27	
11	11	25	
12	9	29	
6	13	32	
5	8	32	
9	9	27	
8	8	39	
9	10	28	
6	13	34	
6	12	23	
5	13	24	
9	8	32	
12	4	24	
8	11	23	
6	11	34	
13	11	35	
6	13	31	
9	12	31	
5	10	26	
7	14	27	
7	9	22	
5	7	30	
6	9	45	
8	5	25	
7	11	26	
6	10	26	
5	10	29	
10	10	31	
8	9	25	
11	15	30	
5	13	27	
8	12	21	
6	8	24	
10	7	32	
10	12	35	
7	9	37	
4	15	33	
10	5	28	
13	3	22	
6	11	35	
6	6	33	
9	14	28	
3	8	27	
8	13	27	
5	8	21	
10	16	28	
5	12	27	
8	10	31	
7	12	26	
8	14	21	
12	10	25	
9	14	22	
13	12	43	
10	7	32	
8	11	30	
8	9	38	
6	5	24	
4	8	27	
6	19	26	
11	9	32	
5	15	24	
5	15	27	
4	15	30	
6	10	24	
6	11	29	
6	12	34	
4	13	15	
5	18	21	
7	12	35	
11	16	29	
11	8	20	
7	8	31	
5	10	29	
5	7	30	
9	6	30	
7	10	29	
7	8	27	
6	10	25	
4	6	27	
9	10	27	
6	5	36	
6	13	21	
6	11	29	
10	9	22	
3	4	34	
10	7	25	
9	6	24	
7	13	27	
9	12	35	
10	11	26	
8	13	26	
9	6	30	
9	10	31	
5	9	25	
15	10	31	
5	7	24	
5	8	36	
9	10	26	
4	10	33	
4	12	28	
9	6	27	
5	9	27	
8	9	32	
8	20	30	
3	10	26	
6	8	29	
7	9	25	
5	7	23	
5	7	21	
4	10	29	
11	12	46	
6	9	26	
11	9	36	
4	8	25	
5	11	31	
8	12	34	
6	12	23	
8	9	30	
7	12	26	
10	13	30	
7	11	29	
9	14	40	
6	7	31	
10	11	30	
8	11	24	
6	8	35	
10	12	32	
14	10	31	
7	12	32	
7	7	29	
10	7	31	
7	16	35	
4	13	23	
7	10	27	
8	10	21	
7	11	33	
2	9	38	
13	11	36	
7	8	21	
8	8	30	
7	23	23	
2	15	34	
6	12	29	
1	11	17	
4	12	20	
11	9	21	
8	17	25	
5	14	31	
7	7	22	
8	7	35	
11	7	17	
7	6	31	
7	10	29	
3	9	36	
6	13	26	
3	13	26	
10	13	30	
6	13	26	
3	16	28	
10	8	21	
5	5	28	
7	7	26	
9	12	25	
7	16	28	
10	10	27	
10	10	41	
6	9	30	
5	10	11	
9	9	23	
3	9	25	
8	14	31	
4	9	35	
9	15	27	
7	9	32	
11	16	25	
0	6	35	
5	13	31	
4	13	22	
6	11	20	
10	13	20	
7	7	25	
5	12	28	
4	6	30	
7	10	21	
8	4	33	
6	12	21	
6	8	26	
7	11	31	
5	11	23	
4	14	32	
7	11	25	
4	15	18	
4	12	28	
12	12	28	
6	11	20	
5	7	32	
2	6	26	
8	12	21	
3	3	25	
7	8	31	
7	12	17	
7	3	29	
9	14	24	
4	10	18	
6	8	28	
3	12	28	
8	4	30	
4	10	28	
11	10	29	
6	9	19	
6	5	27	
4	10	23	
6	11	33	
3	10	31	
5	8	22	
8	12	34	
9	15	26	
8	10	32	
3	11	21	
10	9	28	
8	9	32	
10	13	23	
8	14	25	
6	5	26	
9	2	26	
6	7	29	
7	12	19	
9	12	29	
4	8	29	
6	11	31	
5	10	24	
5	8	22	
4	13	23	
3	10	32	
8	10	26	
5	8	24	
5	8	35	
5	4	30	
6	12	15	
6	7	21	
8	12	37	
10	8	31	
2	16	36	
6	8	33	
1	9	35	
9	8	29	
4	10	32	
4	12	20	
8	4	25	
5	5	28	
12	16	27	
7	9	23	
7	5	31	
3	10	22	
9	9	26	
5	8	28	
6	9	38	
6	9	30	
3	11	36	
4	14	38	
7	12	29	
4	7	28	
9	7	32	
12	15	29	
9	14	24	
5	13	20	
9	7	25	
9	6	28	
8	8	20	
6	10	23	
5	6	20	
5	9	32	
2	7	27	
2	8	19	
4	10	17	
2	11	33	
5	10	33	
7	7	27	
8	10	22	
7	8	30	
7	7	30	
6	12	27	
3	9	23	
5	10	20	
3	6	27	
4	15	29	
8	11	26	
11	5	33	
0	11	24	
5	10	32	
9	8	26	
3	9	23	
6	4	21	
10	11	33	
10	6	16	
9	6	35	
9	6	19	
5	13	26	
7	5	28	
8	10	31	
4	8	28	
5	8	36	
4	5	32	
7	12	20	
8	6	31	
6	7	30	
6	7	30	
6	8	29	
7	8	24	
6	12	17	
3	14	21	
9	9	26	
4	8	21	
8	5	29	
5	16	32	
11	4	21	
7	10	34	
9	14	41	
6	8	27	
7	6	23	
3	5	28	
8	10	31	
9	10	27	
5	8	32	
6	11	25	
8	8	20	
8	7	24	
5	8	23	
10	11	29	
4	5	22	
5	5	16	
9	10	29	
7	8	26	
6	7	27	
6	6	31	
4	7	37	
6	8	31	
10	8	32	
4	9	34	
5	6	22	
5	8	29	
4	15	24	
5	10	28	
3	13	25	
5	9	37	
4	11	33	
9	6	36	
6	5	21	
5	9	30	
6	8	11	
4	11	24	
7	12	22	
8	14	33	
9	11	16	
6	10	28	
6	11	21	
5	6	26	
7	6	34	
4	16	29	
9	9	30	
4	15	27	
4	5	24	
4	7	26	
5	7	32	
4	11	27	
7	8	23	
8	19	26	
12	8	27	
3	3	29	
7	7	19	
5	10	25	
4	6	26	
7	11	27	
8	7	25	
4	7	28	
6	12	28	
4	6	24	
5	11	25	
9	8	27	
4	10	20	
9	15	33	
8	5	32	
5	8	32	
5	13	24	
5	12	28	
6	8	27	
8	7	23	
4	14	27	
7	13	23	
8	7	24	
3	4	37	
6	15	22	
7	9	21	
6	6	20	
7	10	21	
5	11	27	
8	5	29	
10	12	17	
4	5	24	
7	6	21	
10	7	30	
4	3	35	
6	9	24	
8	11	20	
2	7	33	
7	11	21	
5	9	26	
5	12	26	
4	4	23	
9	11	29	
8	14	27	
6	8	26	
2	10	30	
6	12	29	
5	8	32	
2	9	38	
6	12	25	
10	6	30	
4	11	19	
8	7	22	
7	7	26	
5	4	33	
4	10	14	
3	7	22	
1	8	30	
7	9	26	
3	6	23	
3	9	25	
6	10	29	
2	10	32	
6	4	33	
8	7	29	
5	14	27	
5	7	37	
3	6	21	
2	9	21	
10	15	24	
7	10	26	
6	11	20	
5	10	25	
3	7	31	
5	4	25	
4	7	30	
9	8	27	
8	7	23	
10	7	30	
2	11	25	
3	9	20	
5	7	16	
7	8	32	
2	9	21	
6	14	23	
3	8	25	
6	8	19	
12	15	30	
5	8	29	
7	14	27	
7	6	29	
4	13	17	
4	3	26	
5	6	24	
5	9	34	
4	7	29	
7	10	26	
7	8	24	
6	7	16	
5	9	19	
6	7	18	
6	8	31	
8	10	18	
4	6	25	
11	9	25	
4	7	34	
3	9	26	
4	11	26	
10	4	33	
6	9	27	
7	8	32	
1	10	24	
7	9	24	
4	7	33	
8	15	31	
4	11	24	
6	7	30	
6	8	29	
4	13	34	
5	12	16	
5	4	22	
8	5	24	
5	6	22	
6	10	18	
5	7	18	
6	15	26	
6	6	21	
5	7	28	
1	9	19	
9	15	30	
7	8	17	
6	15	32	
4	8	27	
3	8	34	
7	6	13	
7	14	30	
11	9	23	
7	5	30	
9	10	23	
5	10	21	
6	7	25	
5	5	26	
1	8	17	
2	7	27	
12	8	23	
8	3	23	
5	5	25	
7	6	24	
1	6	25	
9	7	26	
5	10	25	
8	2	28	
4	7	20	
8	9	27	
9	9	28	
8	4	21	
4	8	36	
5	14	16	
6	7	25	
6	4	32	
2	7	32	
5	12	31	
6	5	31	
3	2	21	
7	6	18	
3	9	30	
9	10	17	
5	11	31	
2	9	19	
9	3	23	
4	8	21	
5	8	26	
10	4	26	
4	12	32	
2	13	16	
7	9	28	
5	4	22	
4	7	18	
5	5	33	
3	8	23	
5	6	33	
8	12	20	
6	10	27	
5	5	26	
7	9	24	
3	6	21	
5	9	25	
7	12	20	
6	4	22	
9	8	20	
6	6	26	
6	6	32	
6	8	26	
8	7	22	
7	10	26	
5	7	22	
4	9	16	
4	12	26	
4	8	15	
2	8	17	
3	11	28	
9	5	30	
3	8	17	
4	4	20	
5	7	25	
4	11	27	
12	7	33	
3	6	22	
3	9	16	
3	7	21	
7	6	19	
5	8	26	
8	7	28	
7	7	29	
5	7	23	
7	5	23	
1	7	22	
3	9	24	
7	11	24	
4	6	35	
7	10	24	
9	7	18	
4	4	29	
3	6	25	
3	10	18	
2	5	27	
3	5	23	
7	8	27	
7	7	20	
9	6	20	
6	7	24	
6	5	19	
6	6	29	
3	4	20	
7	4	21	
4	7	23	
3	6	33	
5	7	32	
4	6	26	
4	7	22	
7	6	23	
13	5	30	
4	9	34	
8	3	23	
5	5	28	
8	3	26	
7	5	26	
3	11	24	
3	6	31	
8	5	21	
6	7	23	
6	12	25	
6	4	22	
8	4	23	
8	8	25	
6	7	26	
5	5	29	
3	6	19	
5	5	32	
7	8	21	
6	8	29	
8	5	21	
3	7	21	
10	5	28	
8	5	21	
10	6	24	
4	11	28	
12	11	26	
4	12	22	
7	9	26	
3	12	22	
2	13	29	
7	7	27	
5	11	24	
5	9	21	
3	7	33	
6	13	21	
8	6	24	
5	5	32	
15	8	29	
2	7	20	
5	5	19	
2	7	29	
2	6	25	
3	8	24	
5	9	23	
2	10	19	
2	8	28	
3	8	34	
3	8	20	
5	7	14	
5	6	20	
9	7	22	
8	6	23	
7	6	20	
3	12	23	
7	4	22	
6	5	20	
2	6	28	
9	14	24	
5	9	25	
8	3	16	
5	5	21	
7	11	23	
1	12	24	
3	9	21	
6	4	18	
4	9	21	
5	6	17	
6	5	18	
3	11	22	
10	4	23	
7	6	27	
9	7	19	
5	15	28	
5	9	25	
5	6	29	
5	8	29	
7	11	25	
4	12	24	
2	3	30	
5	6	26	
4	7	31	
4	5	21	
2	14	26	
3	3	27	
4	8	26	
5	14	23	
5	10	35	
5	5	32	
4	6	24	
5	9	25	
9	6	21	
1	6	21	
7	4	27	
3	6	19	
2	5	25	
7	6	17	
8	6	27	
7	6	19	
2	11	27	
8	7	27	
5	5	21	
3	11	21	
2	6	27	
5	8	22	
3	4	23	
7	9	28	
7	7	21	
3	8	24	
6	10	22	
4	5	31	
6	9	32	
8	9	23	
5	10	25	
6	7	18	
8	6	27	
7	6	23	
5	10	26	
4	6	28	
4	7	18	
5	7	32	
5	9	19	
7	6	19	
5	7	25	
3	9	25	
5	6	24	
4	9	19	
5	7	25	
2	7	26	
5	8	17	
7	8	29	
4	9	32	
5	8	24	
3	8	18	
5	5	18	
3	7	21	
4	7	34	
4	9	21	
5	6	25	
4	2	23	
4	8	26	
7	4	29	
4	4	22	
3	6	25	
4	10	21	
2	7	33	
5	8	25	
6	7	33	
8	6	15	
9	6	27	
3	5	21	
6	5	30	
6	6	15	
6	4	20	
4	9	25	
7	11	21	
7	3	33	
6	5	19	
4	3	27	
10	2	22	
5	5	23	
4	9	23	
6	6	19	
5	7	30	
10	3	22	
2	7	26	
4	9	27	
5	5	35	
4	6	24	
5	7	24	
4	7	21	
5	9	28	
3	7	20	
7	1	26	
2	7	27	
6	4	19	
3	8	24	
6	10	19	
7	6	24	
6	10	24	
5	4	21	
1	10	22	
3	6	17	
5	7	20	
4	7	30	
5	9	26	
4	4	33	
10	11	24	
7	5	19	
9	6	25	
4	8	25	
4	5	29	
6	6	27	
5	3	24	
9	7	18	
11	11	17	
3	6	22	
5	8	17	
5	7	26	
7	7	22	
3	9	25	
4	9	19	
2	5	31	
1	8	33	
7	10	24	
5	11	22	
7	6	20	
6	4	23	
1	7	34	
3	9	18	
3	3	21	
4	9	26	
1	8	20	
2	7	22	
2	5	36	
7	8	15	
3	5	19	
4	6	16	
3	9	18	
9	6	27	
6	6	26	
1	10	27	
7	8	28	
1	9	23	
6	7	27	
2	6	25	
3	10	14	
3	6	24	
3	8	21	
4	7	30	
11	7	24	
1	10	19	
3	9	28	
6	13	15	
6	8	22	
3	3	15	
7	3	17	
7	8	22	
4	5	21	
8	5	20	
7	5	22	
9	6	22	
2	9	20	
5	10	25	
3	8	23	
6	5	23	
5	8	22	
7	9	24	
6	4	21	
8	9	21	
6	4	25	
3	7	21	
5	6	33	
5	5	24	
3	6	22	
4	3	21	
8	7	30	
3	14	17	
2	9	15	
4	6	19	
7	8	27	
4	7	27	
6	1	18	
2	4	21	
7	7	21	
1	4	36	
5	3	17	
8	8	25	
9	5	16	
4	11	24	
0	10	18	
2	5	21	
9	9	23	
1	4	24	
7	10	22	
8	4	27	
3	7	24	
3	6	24	
5	7	31	
1	8	22	
4	5	19	
7	4	17	
