#PicoHarp 300  Histogram Data			03/28/2023 02:18:46 PM
#channels per curve
15625
#display curve no.
0	1	2	
#memory block no.
0	1	2	
#ns/channel
0.1280	0.1280	0.1280	
#counts
0	2	3	
1	2	3	
1	0	6	
3	2	3	
0	1	6	
0	2	3	
2	1	8	
1	2	3	
1	1	4	
1	0	6	
0	0	5	
1	1	7	
0	3	3	
0	3	7	
0	1	4	
1	1	3	
0	2	3	
0	0	7	
2	1	10	
1	0	4	
2	2	3	
0	2	2	
0	4	2	
1	1	4	
0	0	2	
0	1	2	
1	1	2	
0	1	6	
0	2	4	
0	0	4	
0	1	4	
0	0	3	
0	2	4	
2	1	7	
0	1	5	
1	0	2	
0	2	4	
3	2	2	
0	2	3	
1	0	1	
1	1	5	
1	0	2	
0	4	4	
0	0	4	
2	1	6	
0	1	3	
0	2	5	
0	1	2	
1	3	3	
0	1	1	
0	1	6	
0	1	6	
2	1	3	
0	0	5	
1	0	8	
3	1	3	
0	1	5	
0	0	7	
1	1	3	
1	0	5	
0	0	2	
0	1	2	
0	1	5	
1	0	3	
0	2	4	
0	0	3	
1	0	4	
3	3	1	
0	2	6	
6	6	10	
13	11	18	
26	23	30	
32	33	46	
36	51	65	
58	55	67	
70	62	98	
61	61	71	
64	88	87	
90	75	78	
78	73	100	
77	85	72	
100	77	89	
84	91	67	
81	79	63	
69	76	75	
85	77	80	
67	76	61	
80	82	71	
67	67	64	
70	76	60	
70	71	66	
90	65	61	
77	66	78	
86	100	64	
81	85	64	
76	66	87	
83	48	71	
63	67	59	
66	62	62	
67	60	64	
68	62	61	
72	72	65	
49	73	54	
80	80	44	
63	76	63	
66	62	70	
79	56	62	
64	71	66	
67	63	69	
76	57	59	
85	56	59	
70	76	67	
72	70	76	
63	65	66	
80	64	62	
72	49	55	
62	55	55	
75	55	50	
72	56	55	
69	51	59	
73	56	57	
77	55	49	
58	62	47	
75	61	67	
63	49	46	
66	49	61	
60	49	56	
63	81	53	
67	68	59	
55	54	42	
66	69	57	
89	61	66	
57	47	60	
61	51	64	
56	58	53	
56	42	50	
57	58	56	
62	62	50	
47	45	42	
63	65	45	
87	57	48	
50	41	48	
62	61	55	
60	52	54	
57	56	53	
51	61	52	
48	57	55	
52	55	46	
61	50	40	
62	62	54	
59	47	57	
63	57	33	
53	50	62	
47	46	54	
44	62	49	
54	59	58	
60	43	42	
56	47	35	
44	56	45	
57	47	57	
63	60	37	
57	50	45	
54	44	34	
56	40	37	
55	45	56	
60	49	46	
52	50	53	
54	52	46	
67	39	52	
53	42	34	
60	43	45	
61	61	50	
56	49	60	
59	52	43	
45	66	48	
68	62	37	
46	46	44	
62	36	48	
62	47	35	
53	55	44	
59	49	51	
54	38	49	
56	42	44	
42	47	49	
52	45	57	
43	38	46	
43	45	39	
65	45	29	
53	50	48	
47	47	45	
66	45	39	
62	43	51	
44	33	40	
54	39	41	
57	40	44	
51	54	29	
41	41	54	
46	48	47	
43	54	41	
50	42	41	
49	52	48	
53	52	42	
47	38	43	
51	55	38	
54	60	46	
54	44	42	
47	50	46	
54	49	50	
46	39	53	
56	32	41	
58	43	39	
49	52	40	
57	55	37	
46	45	36	
53	40	50	
45	42	38	
41	53	36	
47	42	41	
52	41	47	
45	48	34	
49	46	39	
33	40	47	
46	49	45	
48	40	46	
42	45	42	
51	49	34	
31	32	50	
48	43	41	
42	43	38	
45	33	35	
48	43	48	
53	50	44	
49	48	55	
53	32	47	
48	48	37	
49	32	42	
36	44	41	
40	45	43	
53	45	41	
44	41	40	
38	47	30	
44	45	41	
55	43	45	
42	45	49	
40	43	36	
25	48	41	
45	42	35	
45	35	35	
46	41	42	
39	42	37	
46	28	41	
57	43	29	
42	42	33	
42	49	37	
53	40	43	
49	46	40	
38	67	30	
48	39	39	
30	41	46	
50	42	39	
42	43	29	
42	29	27	
45	39	36	
44	39	37	
47	42	39	
38	37	37	
44	41	45	
47	44	39	
40	32	37	
47	30	31	
43	27	26	
45	34	48	
54	35	39	
31	26	40	
39	41	34	
43	40	35	
37	34	45	
47	34	56	
47	39	30	
32	34	37	
31	41	40	
54	40	37	
29	33	38	
41	32	26	
40	25	37	
33	34	40	
46	39	36	
34	28	34	
30	37	26	
35	41	33	
42	41	43	
42	36	34	
33	39	42	
44	37	36	
39	42	39	
44	31	33	
36	47	26	
29	36	40	
36	27	31	
34	35	31	
46	31	33	
38	29	43	
28	40	29	
39	41	28	
37	28	44	
46	29	22	
38	32	38	
40	34	44	
34	34	35	
36	33	28	
37	42	31	
38	38	40	
41	32	36	
31	39	34	
39	40	26	
32	35	28	
29	31	32	
32	39	36	
25	32	27	
30	19	23	
43	26	30	
33	23	32	
33	44	29	
37	36	34	
34	28	41	
32	24	38	
44	33	29	
29	38	34	
27	45	39	
19	34	34	
30	50	24	
27	35	25	
31	30	40	
35	40	31	
39	35	38	
20	32	49	
50	33	33	
33	26	35	
33	29	47	
33	26	34	
40	30	29	
29	27	31	
46	34	40	
49	25	36	
36	39	32	
38	26	34	
42	31	31	
45	35	30	
34	36	28	
34	26	34	
29	41	25	
31	34	26	
30	39	29	
50	42	28	
43	37	33	
26	29	39	
32	36	29	
37	36	36	
40	30	32	
40	32	28	
42	27	32	
35	41	28	
26	33	34	
29	34	24	
22	31	40	
32	23	44	
34	34	31	
27	35	23	
19	47	36	
25	26	39	
40	30	30	
42	33	37	
48	36	24	
36	19	35	
29	29	29	
31	34	28	
47	24	34	
44	25	28	
40	24	24	
34	23	35	
29	32	29	
27	35	33	
34	28	30	
39	32	23	
36	27	34	
29	42	24	
30	35	34	
31	28	37	
29	31	27	
26	26	34	
30	36	25	
36	34	20	
37	23	41	
36	29	41	
28	17	21	
35	36	33	
35	41	31	
39	40	35	
35	24	33	
40	29	36	
34	30	33	
36	30	41	
35	28	34	
35	29	32	
27	24	33	
25	26	31	
30	26	29	
33	29	34	
33	25	26	
31	22	33	
27	33	27	
18	28	22	
26	32	27	
29	23	22	
36	36	26	
37	22	29	
35	31	35	
30	30	28	
32	30	34	
28	26	36	
32	28	27	
26	34	32	
40	32	39	
24	26	36	
24	23	27	
32	36	26	
38	26	26	
34	37	27	
47	28	22	
28	25	22	
26	36	41	
37	24	39	
21	35	29	
34	30	28	
41	30	36	
22	22	34	
30	29	34	
33	38	23	
22	27	25	
33	27	17	
24	39	19	
26	23	29	
31	31	28	
34	47	34	
31	24	29	
31	27	22	
25	31	36	
29	28	38	
28	27	40	
29	28	26	
29	26	30	
22	29	32	
29	26	29	
18	26	30	
27	28	28	
26	35	24	
24	29	23	
25	26	34	
32	29	28	
32	28	33	
33	22	45	
24	24	30	
30	29	28	
25	29	36	
26	29	30	
33	34	27	
36	19	19	
23	40	34	
24	27	23	
32	27	30	
31	23	30	
21	23	32	
25	34	30	
26	37	31	
27	23	18	
22	29	34	
31	27	29	
31	28	32	
32	29	21	
21	28	22	
23	25	28	
32	34	31	
27	21	25	
29	29	25	
29	29	41	
32	25	18	
33	39	17	
23	28	28	
22	26	29	
23	34	20	
31	23	35	
26	27	29	
38	18	23	
31	23	28	
21	23	29	
26	20	20	
37	30	37	
23	24	27	
29	25	23	
30	33	26	
27	21	28	
34	24	23	
30	31	23	
34	22	18	
26	24	20	
33	23	28	
33	32	19	
27	18	23	
30	36	21	
25	29	25	
26	24	33	
32	29	28	
27	21	35	
30	24	29	
29	28	18	
30	22	35	
32	24	27	
31	21	31	
17	26	21	
26	18	18	
28	30	32	
28	16	26	
24	26	23	
33	26	28	
28	20	27	
26	26	22	
25	19	27	
32	29	26	
24	18	31	
28	26	23	
26	23	27	
21	27	27	
20	23	21	
25	22	30	
20	31	23	
37	27	27	
29	25	25	
38	25	29	
21	31	39	
20	26	26	
37	17	25	
26	20	32	
33	22	26	
33	20	27	
29	20	26	
31	22	25	
29	23	21	
28	32	28	
24	25	35	
17	23	26	
26	22	25	
24	27	21	
18	22	24	
31	25	19	
30	28	22	
23	24	29	
20	23	22	
24	28	24	
24	27	32	
22	24	25	
26	30	30	
39	30	25	
39	25	25	
25	26	21	
33	32	27	
24	26	20	
27	17	23	
31	20	24	
21	20	22	
24	21	26	
15	22	37	
23	20	21	
25	25	24	
21	34	31	
27	21	36	
20	23	27	
30	25	31	
36	21	25	
29	30	37	
32	16	24	
26	14	24	
20	19	33	
20	34	27	
27	17	24	
18	25	24	
21	29	25	
23	23	20	
16	35	22	
13	24	33	
20	26	27	
20	29	24	
33	26	24	
29	22	20	
33	25	28	
24	16	23	
27	19	24	
27	28	20	
23	26	35	
25	23	22	
22	19	26	
33	20	25	
24	24	33	
21	18	27	
22	23	23	
26	23	34	
23	21	23	
19	18	26	
35	30	28	
25	17	21	
25	20	20	
25	22	28	
22	23	24	
32	24	21	
21	26	25	
26	19	33	
16	35	26	
22	16	17	
17	37	33	
21	18	19	
25	25	23	
24	23	22	
22	27	26	
18	17	33	
22	21	30	
21	26	25	
24	15	31	
10	19	22	
17	25	16	
17	19	24	
22	20	25	
23	22	19	
19	16	29	
32	25	16	
39	17	22	
22	23	12	
18	14	25	
19	13	26	
19	29	24	
28	23	22	
18	23	15	
17	16	24	
17	21	22	
20	18	28	
32	27	24	
23	29	28	
23	20	29	
29	24	36	
14	31	16	
16	19	28	
16	18	26	
36	25	28	
19	20	20	
21	20	29	
18	20	34	
24	23	31	
27	15	16	
32	24	22	
27	24	24	
24	22	26	
31	26	24	
14	30	23	
12	25	28	
18	22	28	
27	18	24	
16	18	29	
10	27	23	
23	19	23	
14	16	16	
22	21	24	
15	15	22	
29	19	27	
14	16	26	
24	32	28	
23	21	23	
22	25	21	
17	24	27	
25	20	20	
35	25	16	
20	28	24	
24	17	16	
25	21	20	
22	21	19	
25	14	27	
25	16	26	
27	14	23	
15	21	34	
22	22	27	
16	28	25	
23	27	17	
21	21	25	
22	19	18	
30	26	21	
16	18	16	
21	20	32	
21	16	22	
21	24	20	
22	14	24	
20	22	28	
27	20	21	
29	18	25	
20	21	23	
26	20	29	
22	16	20	
18	16	12	
22	27	26	
20	18	24	
12	17	24	
20	25	24	
32	22	27	
21	16	24	
26	16	22	
17	23	29	
18	23	24	
23	22	14	
41	17	14	
24	19	28	
28	24	21	
25	16	29	
21	28	20	
18	20	22	
18	12	19	
25	21	21	
24	19	16	
16	15	33	
27	26	18	
25	22	27	
25	18	28	
30	17	23	
22	16	22	
15	25	19	
12	18	28	
25	24	17	
21	21	25	
22	22	21	
17	20	19	
27	20	25	
24	30	27	
14	23	31	
14	19	24	
20	18	27	
29	22	20	
29	16	34	
26	25	24	
16	21	14	
26	21	23	
27	26	29	
12	22	18	
24	21	15	
20	15	29	
18	17	20	
33	18	16	
21	14	19	
16	24	19	
12	25	17	
22	17	14	
17	22	23	
16	13	24	
21	12	34	
15	27	18	
23	30	26	
13	18	18	
20	24	23	
17	18	21	
22	20	18	
17	18	28	
21	26	18	
18	23	23	
22	17	17	
22	17	26	
15	23	23	
18	21	28	
25	22	14	
26	12	21	
13	21	22	
23	15	23	
22	25	27	
24	23	16	
19	18	14	
35	14	20	
16	21	20	
18	24	24	
9	19	20	
20	24	25	
22	15	23	
17	20	24	
17	22	25	
17	26	22	
16	12	20	
25	21	23	
24	16	21	
23	19	20	
21	13	14	
21	23	14	
21	12	24	
26	19	26	
18	12	26	
19	16	17	
25	24	21	
21	27	22	
20	22	17	
26	13	24	
18	16	24	
16	14	24	
10	16	29	
18	13	20	
22	19	19	
20	19	19	
21	16	21	
13	20	17	
25	17	23	
18	22	30	
18	21	15	
25	22	30	
16	13	23	
25	15	22	
29	21	27	
20	16	18	
28	26	21	
21	14	20	
17	17	16	
16	26	18	
21	16	18	
20	17	25	
21	12	22	
11	25	12	
19	18	24	
23	18	18	
18	23	28	
20	20	18	
20	22	24	
8	14	19	
19	11	22	
18	15	14	
17	20	16	
18	15	31	
20	21	28	
18	18	18	
12	19	20	
14	17	20	
15	12	19	
19	17	19	
21	20	19	
20	13	24	
24	17	14	
10	25	21	
23	19	16	
19	15	24	
30	23	23	
13	11	11	
22	19	16	
23	16	17	
21	29	12	
13	26	19	
17	21	22	
19	16	17	
10	15	27	
17	23	20	
18	9	21	
21	12	14	
24	18	21	
18	28	19	
16	21	20	
18	16	25	
14	31	21	
23	21	21	
9	15	21	
22	20	21	
17	14	15	
17	14	20	
20	17	21	
17	18	20	
14	17	23	
20	11	17	
26	16	25	
14	18	20	
23	11	17	
14	16	19	
18	14	23	
18	19	24	
16	14	31	
23	12	28	
17	19	12	
20	15	28	
13	16	15	
13	11	21	
21	23	11	
16	11	16	
23	25	19	
22	16	23	
15	18	32	
27	12	25	
17	14	24	
15	14	23	
24	19	25	
16	20	22	
20	17	19	
16	19	31	
22	17	24	
22	16	23	
10	16	25	
19	13	22	
15	12	16	
16	27	18	
15	12	17	
18	8	28	
15	20	20	
20	17	21	
14	17	16	
26	16	16	
20	9	13	
19	13	15	
15	20	19	
17	11	22	
13	17	23	
11	17	20	
24	16	22	
23	8	18	
14	11	20	
14	7	11	
9	17	16	
14	17	14	
16	23	17	
18	14	19	
19	10	14	
10	17	28	
11	19	20	
20	15	25	
19	23	22	
22	7	23	
17	15	25	
15	23	14	
14	14	21	
17	19	14	
23	13	23	
10	17	24	
21	17	25	
14	12	14	
13	20	24	
15	16	21	
20	17	17	
10	16	18	
14	20	24	
14	18	21	
18	16	20	
23	18	13	
11	17	15	
20	17	13	
12	11	14	
20	17	23	
17	18	26	
16	10	19	
17	18	17	
15	16	32	
28	16	15	
25	15	26	
12	16	21	
10	13	19	
13	17	22	
10	16	28	
24	18	15	
15	16	20	
19	18	16	
21	23	22	
23	16	20	
19	14	17	
18	19	18	
9	13	20	
20	21	20	
21	20	15	
22	19	20	
20	20	24	
14	23	22	
17	16	16	
18	16	18	
14	13	22	
17	13	16	
21	10	25	
15	19	23	
16	13	16	
22	22	16	
23	11	19	
13	21	26	
18	18	19	
19	23	26	
24	16	18	
14	10	17	
17	16	19	
19	11	16	
12	9	12	
18	18	20	
15	18	13	
12	18	26	
14	16	16	
18	9	18	
18	16	16	
14	19	15	
19	16	17	
15	16	15	
14	17	18	
24	14	19	
14	11	20	
18	12	10	
13	10	18	
19	14	18	
14	15	15	
18	21	26	
19	21	17	
13	15	18	
15	19	22	
17	10	16	
17	15	23	
12	21	18	
20	24	10	
13	7	16	
16	20	19	
18	15	23	
20	21	18	
16	10	16	
20	15	19	
16	10	10	
12	19	21	
23	14	22	
16	14	20	
11	22	18	
21	9	19	
18	14	15	
15	9	18	
19	11	24	
22	11	17	
18	12	14	
19	13	23	
21	13	15	
12	12	26	
15	13	20	
24	15	25	
11	11	15	
14	15	24	
13	18	22	
12	15	17	
12	12	21	
17	21	24	
12	11	19	
18	16	24	
21	14	23	
14	13	23	
17	21	15	
12	14	20	
16	16	16	
16	13	14	
20	17	15	
19	12	20	
16	14	14	
12	19	18	
13	16	20	
19	13	21	
18	10	21	
17	16	12	
16	12	19	
15	12	22	
17	13	23	
12	17	17	
17	14	19	
17	19	23	
16	22	14	
15	13	22	
18	17	12	
11	14	22	
11	17	21	
15	21	17	
18	13	24	
23	18	20	
30	13	21	
14	17	27	
19	11	18	
18	15	23	
14	8	13	
8	15	25	
12	15	19	
13	14	21	
11	15	17	
20	12	25	
14	13	17	
16	13	12	
23	15	13	
13	9	15	
16	14	10	
7	14	24	
18	12	18	
12	18	16	
18	17	18	
14	12	21	
11	13	27	
16	18	27	
14	12	15	
15	8	23	
18	14	16	
17	15	23	
11	13	16	
11	11	13	
22	14	20	
16	21	19	
19	17	14	
10	16	15	
11	11	19	
23	18	20	
10	17	23	
16	12	20	
17	20	18	
14	11	19	
22	14	22	
13	16	20	
12	10	18	
15	8	11	
17	14	16	
16	25	25	
14	14	15	
21	16	16	
13	9	17	
21	12	30	
8	12	22	
8	15	11	
13	10	16	
14	15	13	
16	20	15	
23	22	17	
12	11	13	
12	17	19	
11	14	16	
12	17	26	
14	14	20	
27	21	15	
10	10	15	
17	10	19	
13	18	22	
12	20	15	
13	15	18	
10	13	16	
15	12	25	
19	17	18	
10	17	21	
19	11	19	
18	19	11	
13	23	20	
14	17	16	
18	18	19	
11	15	12	
12	17	20	
18	18	20	
12	15	17	
9	12	22	
19	14	25	
12	14	23	
17	17	28	
16	16	20	
14	13	19	
20	20	18	
13	12	15	
12	21	19	
13	20	23	
9	16	18	
20	8	23	
14	22	21	
21	15	15	
13	15	14	
13	14	13	
17	16	15	
11	15	20	
19	15	16	
10	17	20	
11	20	18	
7	11	18	
12	18	15	
10	19	21	
16	16	16	
15	16	15	
15	17	20	
9	17	16	
7	19	8	
16	11	19	
15	14	14	
15	10	18	
20	10	14	
19	12	25	
20	17	19	
23	9	16	
15	12	22	
20	14	21	
12	12	20	
13	18	17	
9	14	18	
13	16	19	
9	22	17	
12	8	18	
14	13	15	
13	11	12	
18	18	22	
13	11	15	
14	11	21	
15	13	15	
14	16	17	
13	15	13	
14	17	17	
13	17	25	
9	7	20	
13	14	18	
10	8	16	
19	17	14	
14	9	13	
12	16	21	
14	12	18	
13	10	12	
11	9	14	
23	17	9	
14	10	29	
15	15	15	
12	17	21	
15	13	24	
23	14	12	
17	17	18	
18	12	24	
12	11	18	
21	9	24	
10	7	18	
17	14	19	
7	11	9	
18	13	20	
11	10	21	
13	16	13	
6	18	25	
9	14	21	
13	18	17	
6	19	18	
10	13	14	
16	7	23	
15	19	33	
11	9	17	
17	13	13	
7	8	19	
13	14	14	
12	9	14	
14	20	19	
13	9	19	
13	14	13	
8	13	18	
15	11	15	
20	14	18	
18	13	18	
15	13	16	
11	14	14	
10	16	18	
14	16	16	
10	15	10	
10	14	13	
14	18	17	
14	11	9	
21	12	18	
8	12	14	
8	19	10	
14	13	13	
13	12	13	
12	16	20	
12	11	27	
5	7	30	
20	14	20	
6	15	18	
9	8	19	
19	12	16	
20	14	23	
10	18	19	
16	15	16	
12	9	10	
13	11	11	
8	14	15	
14	13	15	
18	6	10	
13	12	16	
8	14	20	
9	8	21	
14	15	18	
13	10	11	
20	17	16	
18	10	17	
13	11	16	
16	20	23	
21	17	13	
19	13	9	
21	14	14	
13	9	17	
11	15	14	
13	12	15	
14	14	19	
15	15	20	
8	16	21	
16	9	16	
17	15	13	
10	9	13	
10	9	13	
18	11	13	
11	17	22	
13	13	15	
12	11	16	
8	22	17	
12	9	14	
7	13	16	
15	11	16	
14	11	12	
10	19	19	
16	13	5	
11	11	16	
14	9	15	
7	14	15	
10	10	14	
12	11	14	
13	12	12	
11	17	27	
12	13	18	
13	13	18	
17	8	6	
10	11	20	
21	11	12	
16	14	14	
8	9	26	
12	9	14	
17	19	14	
15	18	8	
14	13	12	
18	11	12	
16	13	15	
14	7	22	
13	11	16	
14	10	17	
16	16	16	
16	11	17	
16	13	15	
10	16	9	
12	14	11	
18	10	20	
8	16	8	
9	8	15	
11	8	19	
11	17	20	
15	12	12	
14	17	18	
11	5	19	
17	12	19	
15	14	16	
17	14	20	
15	7	15	
16	18	12	
13	10	23	
12	10	10	
9	5	16	
12	16	18	
11	16	17	
13	12	17	
14	16	16	
8	13	21	
13	11	22	
21	11	13	
7	14	12	
12	12	15	
16	9	17	
15	7	14	
5	10	13	
14	7	27	
14	11	14	
16	13	19	
12	10	13	
11	19	23	
12	8	23	
11	11	18	
10	17	15	
9	14	12	
7	9	11	
11	12	11	
13	11	16	
8	12	12	
8	11	6	
13	9	22	
14	10	17	
10	9	16	
17	17	18	
12	10	16	
13	11	19	
10	20	8	
10	15	23	
9	14	11	
20	8	12	
13	12	16	
14	10	16	
6	16	21	
12	11	13	
9	10	19	
10	10	22	
10	11	11	
16	9	20	
18	10	16	
11	8	8	
14	15	17	
13	15	21	
15	13	13	
11	16	10	
11	7	12	
11	10	8	
15	10	20	
16	15	13	
9	16	22	
10	7	13	
5	9	15	
18	12	21	
12	14	24	
12	13	11	
13	10	17	
9	9	10	
9	11	18	
8	9	14	
6	13	12	
9	13	20	
8	9	16	
12	11	22	
10	11	16	
11	13	23	
14	16	14	
16	10	9	
14	13	12	
13	11	14	
15	10	14	
10	18	11	
14	10	12	
11	10	13	
11	18	18	
11	13	15	
14	14	9	
9	15	19	
15	14	14	
16	21	16	
12	11	16	
16	8	20	
11	12	13	
8	12	18	
14	9	27	
7	20	19	
16	8	25	
18	15	16	
12	11	19	
10	8	11	
12	13	13	
8	14	18	
10	13	15	
15	13	18	
6	13	13	
14	21	18	
13	18	18	
14	6	10	
9	15	17	
14	13	12	
16	13	23	
12	14	16	
10	14	13	
15	16	15	
14	14	10	
6	8	19	
14	8	18	
15	16	21	
9	9	17	
17	18	10	
9	7	17	
11	12	10	
10	12	18	
11	5	14	
16	15	22	
11	9	15	
11	11	22	
8	13	16	
19	10	18	
14	11	20	
7	6	23	
17	9	13	
14	9	13	
9	9	21	
10	9	9	
12	14	12	
6	16	9	
14	12	16	
11	10	21	
15	17	19	
4	12	20	
13	10	21	
10	14	18	
10	9	19	
13	9	13	
14	15	13	
13	11	20	
13	5	18	
10	14	14	
16	9	11	
9	14	19	
11	9	7	
14	11	9	
16	10	22	
14	13	21	
10	8	14	
13	9	10	
17	8	16	
13	9	11	
10	14	19	
10	11	9	
12	6	21	
16	12	20	
13	13	12	
10	6	10	
13	6	17	
10	15	17	
9	11	15	
7	9	14	
7	17	22	
9	11	13	
10	15	16	
18	6	16	
16	9	14	
9	11	9	
10	13	12	
9	12	11	
13	9	15	
8	18	13	
8	7	19	
12	10	13	
11	12	17	
9	15	14	
13	10	18	
9	12	5	
9	11	11	
17	16	8	
14	10	16	
7	15	19	
15	12	21	
13	7	20	
17	11	16	
15	11	16	
11	12	22	
19	8	18	
11	9	12	
7	11	15	
13	12	13	
7	10	14	
10	15	12	
10	12	15	
12	12	8	
10	7	9	
7	13	14	
9	8	22	
8	9	22	
6	15	12	
9	9	11	
8	14	14	
13	16	17	
7	13	10	
14	9	12	
16	7	20	
7	13	17	
11	11	17	
10	13	13	
10	10	14	
13	13	12	
12	8	20	
19	14	14	
14	17	11	
8	10	13	
12	9	11	
19	12	14	
8	11	7	
15	11	11	
14	9	13	
5	9	14	
11	18	18	
15	6	12	
13	10	17	
7	11	25	
15	14	18	
11	9	12	
13	8	12	
15	10	11	
10	12	15	
13	9	23	
10	16	17	
13	13	21	
9	11	12	
7	8	15	
9	9	10	
8	15	16	
14	10	22	
12	14	21	
12	8	11	
11	15	16	
11	12	7	
16	5	20	
4	15	11	
6	9	19	
7	16	16	
7	11	16	
13	17	14	
8	12	17	
9	14	12	
16	12	8	
8	17	18	
14	9	17	
12	11	11	
8	14	13	
7	3	13	
11	12	17	
8	14	18	
9	11	22	
15	4	17	
13	6	12	
14	11	9	
18	13	19	
8	13	15	
6	14	15	
9	8	14	
7	9	15	
11	14	15	
13	12	10	
7	7	22	
12	12	14	
8	11	16	
10	9	13	
3	13	14	
12	3	12	
9	16	11	
12	14	10	
9	9	22	
9	9	15	
11	8	12	
10	9	12	
12	11	15	
12	16	9	
16	7	19	
8	14	16	
18	18	13	
10	8	13	
8	5	10	
13	7	16	
6	14	10	
12	9	18	
11	11	16	
10	9	14	
11	4	14	
8	15	20	
17	16	12	
9	12	13	
14	8	17	
16	7	15	
8	13	12	
15	6	13	
11	14	12	
11	12	19	
7	3	22	
5	12	13	
6	18	18	
10	10	17	
6	8	22	
15	12	14	
11	13	24	
11	13	11	
14	16	13	
9	12	11	
8	11	16	
10	10	14	
7	7	15	
13	15	12	
5	14	15	
10	7	20	
15	14	10	
10	11	14	
9	7	16	
18	11	13	
8	6	17	
13	11	18	
8	8	19	
5	11	19	
7	11	13	
11	8	15	
8	9	21	
5	13	17	
7	6	13	
11	10	13	
15	8	12	
15	10	13	
15	11	11	
10	7	12	
12	11	18	
9	4	13	
4	9	12	
11	11	15	
13	6	9	
11	10	13	
13	15	17	
8	11	10	
12	15	15	
14	12	21	
13	10	14	
9	14	11	
16	11	22	
11	12	13	
15	6	12	
14	9	14	
10	10	22	
12	10	12	
11	14	13	
15	9	8	
7	10	14	
9	6	19	
11	15	12	
8	13	18	
13	12	15	
8	13	14	
11	18	8	
7	6	9	
4	13	21	
11	11	20	
10	14	14	
10	10	11	
10	10	18	
8	13	13	
6	15	10	
8	8	16	
8	1	11	
14	13	18	
9	10	11	
12	11	9	
9	9	16	
10	7	13	
18	17	16	
14	7	16	
9	12	16	
13	13	10	
13	6	17	
11	8	16	
6	14	9	
13	11	18	
4	6	15	
11	16	12	
13	9	13	
6	16	8	
12	8	11	
13	10	15	
8	6	15	
9	5	19	
5	9	13	
9	6	17	
20	15	13	
9	12	17	
13	14	19	
11	12	17	
12	8	16	
8	12	10	
14	13	16	
9	6	11	
10	9	13	
14	9	13	
12	12	9	
11	10	13	
10	9	16	
13	10	16	
10	16	11	
9	17	11	
17	12	11	
12	11	16	
10	11	14	
7	10	8	
9	11	10	
12	11	16	
8	16	8	
10	16	19	
13	13	17	
13	12	18	
13	8	10	
9	14	16	
14	13	16	
12	9	16	
9	14	16	
7	12	20	
14	12	11	
9	12	21	
12	9	13	
12	8	16	
8	11	12	
10	11	15	
11	12	13	
8	17	14	
11	5	17	
16	12	13	
9	11	11	
7	19	13	
7	11	13	
8	9	12	
10	10	11	
16	10	10	
4	6	7	
11	9	8	
11	4	12	
17	10	13	
11	7	16	
10	12	15	
3	11	14	
13	6	9	
18	11	19	
8	6	15	
10	4	13	
7	6	12	
9	16	18	
13	8	14	
6	14	13	
8	13	9	
7	11	14	
12	12	15	
8	12	17	
11	14	19	
8	7	14	
10	9	11	
16	6	16	
5	9	16	
5	8	12	
13	13	10	
14	5	19	
6	9	15	
8	8	13	
7	9	13	
10	11	15	
12	9	16	
9	9	18	
8	11	9	
8	12	22	
15	14	15	
13	12	12	
9	5	10	
12	5	8	
10	6	10	
11	8	17	
8	9	15	
10	12	20	
10	11	7	
9	14	13	
10	6	12	
6	2	9	
9	7	16	
13	12	15	
7	9	17	
14	9	20	
2	15	11	
11	8	13	
6	10	10	
10	6	8	
7	9	18	
6	9	12	
7	9	21	
12	9	15	
12	5	16	
6	7	16	
6	15	18	
5	9	15	
15	8	24	
9	7	12	
17	10	11	
9	7	17	
8	8	13	
8	7	13	
9	13	13	
9	14	11	
7	8	7	
5	13	15	
8	13	19	
14	9	19	
7	11	9	
8	10	17	
11	13	17	
9	6	14	
16	9	10	
9	9	16	
10	14	12	
12	11	26	
11	14	12	
9	12	11	
10	12	10	
12	6	9	
8	9	15	
14	9	15	
9	10	16	
8	6	22	
11	5	13	
10	8	9	
5	7	16	
12	9	20	
4	3	19	
15	8	13	
9	12	10	
12	12	13	
8	8	11	
12	9	12	
5	11	13	
9	5	10	
8	10	18	
17	11	18	
7	13	17	
9	10	15	
6	6	11	
7	7	14	
16	12	19	
10	13	20	
10	11	12	
11	11	13	
3	3	15	
8	10	18	
11	5	16	
12	8	10	
6	8	18	
9	9	10	
7	10	16	
9	21	11	
8	12	16	
9	9	13	
12	10	19	
16	11	17	
2	10	9	
8	10	12	
5	9	12	
7	7	12	
9	9	14	
10	10	11	
9	10	18	
9	11	17	
9	13	10	
8	10	5	
5	12	9	
9	9	12	
10	13	13	
10	8	16	
9	8	13	
8	8	16	
7	9	12	
8	10	17	
10	10	14	
11	10	8	
8	14	12	
8	5	13	
14	14	11	
16	10	10	
4	9	14	
9	11	11	
9	15	13	
7	8	17	
12	13	14	
12	10	7	
10	10	10	
12	12	9	
10	19	16	
9	14	15	
8	9	14	
14	10	13	
7	11	13	
11	12	8	
9	14	13	
6	13	12	
5	4	13	
5	9	13	
12	9	13	
7	9	4	
14	15	13	
13	14	23	
5	11	9	
10	9	12	
11	5	13	
7	9	8	
7	8	10	
11	4	13	
8	8	17	
8	4	15	
8	9	19	
11	11	13	
13	7	16	
7	11	10	
8	6	16	
8	14	11	
17	8	11	
14	10	17	
8	8	14	
5	7	13	
10	10	14	
8	8	19	
11	12	16	
7	10	17	
5	14	15	
9	10	14	
12	11	11	
7	7	14	
8	9	18	
10	7	7	
10	10	12	
10	7	14	
10	11	13	
9	9	13	
14	8	15	
12	12	12	
9	9	23	
5	8	14	
7	11	9	
14	8	16	
8	6	17	
4	5	11	
7	6	14	
11	8	14	
12	10	9	
8	8	13	
11	6	19	
11	10	8	
4	8	12	
9	6	10	
7	9	12	
7	9	8	
7	7	11	
11	7	14	
8	5	11	
8	11	16	
7	4	16	
11	7	16	
16	9	12	
10	8	20	
9	5	15	
7	15	15	
10	7	13	
11	7	14	
10	4	16	
6	12	6	
6	14	17	
7	11	14	
11	6	20	
9	6	14	
7	6	24	
6	5	5	
10	11	14	
9	10	14	
13	8	14	
11	9	12	
11	6	13	
16	15	18	
7	6	12	
11	12	16	
11	10	15	
8	13	15	
10	8	17	
9	4	19	
11	9	15	
14	7	17	
7	8	10	
10	11	15	
7	7	10	
11	12	14	
6	4	13	
9	8	14	
13	9	11	
4	4	19	
6	9	9	
10	7	14	
12	9	10	
8	13	21	
6	16	15	
10	10	12	
6	16	14	
9	4	15	
11	5	14	
6	15	9	
8	4	15	
12	11	11	
13	15	10	
9	9	12	
5	5	11	
10	9	25	
10	7	15	
16	11	12	
7	9	14	
10	11	25	
5	6	11	
10	16	12	
9	14	15	
8	5	12	
11	3	19	
8	8	13	
13	10	9	
13	4	15	
6	3	14	
13	10	18	
10	6	18	
10	7	12	
9	8	22	
10	12	10	
17	10	14	
7	6	10	
10	2	10	
11	7	11	
11	6	12	
9	7	19	
16	9	13	
11	10	11	
8	7	10	
1	6	15	
7	11	16	
4	7	6	
10	9	12	
7	11	14	
6	10	14	
5	7	10	
4	8	16	
7	8	16	
4	7	11	
8	10	10	
6	5	12	
16	9	10	
8	10	12	
14	13	13	
11	2	13	
9	7	13	
7	14	12	
5	8	9	
8	10	13	
9	7	18	
6	11	15	
9	8	13	
8	9	22	
8	9	13	
9	6	13	
11	10	15	
9	10	9	
12	11	10	
7	8	22	
12	4	22	
13	7	11	
6	14	9	
9	6	19	
4	5	10	
8	11	9	
9	9	14	
12	7	16	
2	10	15	
8	8	8	
10	6	11	
12	13	12	
11	9	12	
7	9	10	
9	10	13	
6	11	12	
7	12	14	
6	8	19	
12	10	9	
9	9	12	
8	9	13	
10	7	16	
6	8	12	
8	2	17	
11	4	16	
7	4	12	
10	8	14	
8	6	13	
3	7	12	
8	8	11	
5	4	13	
7	6	12	
9	10	19	
12	6	6	
9	8	10	
14	10	13	
11	8	13	
7	11	11	
10	7	9	
9	10	13	
13	12	11	
5	16	17	
8	11	12	
9	8	26	
6	11	13	
6	5	16	
8	6	12	
11	8	18	
7	9	11	
14	14	15	
6	9	14	
5	7	12	
5	9	17	
18	7	17	
8	14	5	
6	13	13	
11	10	12	
6	7	7	
5	9	18	
8	7	17	
11	10	9	
10	10	15	
5	8	13	
7	10	11	
6	14	10	
7	6	16	
6	6	15	
16	9	14	
5	11	9	
3	6	7	
9	4	15	
10	6	10	
8	5	22	
7	11	16	
6	9	12	
9	4	10	
8	6	14	
7	6	10	
8	9	13	
12	8	11	
7	9	13	
10	8	12	
9	7	18	
9	7	8	
6	7	18	
10	7	10	
10	10	11	
4	5	14	
7	7	9	
6	8	11	
10	11	7	
11	6	15	
8	9	9	
11	9	11	
9	11	10	
12	12	14	
6	7	16	
7	12	15	
12	11	17	
10	3	19	
7	8	18	
11	11	9	
12	10	8	
6	8	12	
16	6	11	
10	11	15	
8	12	11	
8	7	15	
10	6	15	
5	4	14	
7	4	6	
6	5	12	
8	11	17	
8	5	10	
3	7	17	
9	5	15	
6	14	11	
10	3	15	
10	5	18	
9	7	14	
17	10	11	
8	5	12	
7	10	19	
12	13	9	
5	10	10	
6	12	14	
4	7	10	
11	9	9	
5	13	17	
2	10	11	
13	12	14	
13	8	7	
6	9	19	
7	7	11	
10	6	15	
5	11	17	
6	12	12	
10	10	9	
3	9	16	
10	10	17	
10	11	13	
5	8	15	
13	11	8	
4	4	11	
12	4	12	
9	8	9	
7	5	17	
7	12	10	
9	6	12	
7	1	10	
7	5	13	
4	9	12	
7	12	13	
6	10	17	
5	9	15	
6	8	16	
11	7	11	
7	7	10	
4	6	10	
6	9	12	
8	11	10	
10	4	13	
9	8	15	
10	5	14	
11	8	16	
5	3	12	
6	9	12	
4	6	13	
5	5	19	
7	5	14	
12	10	16	
11	9	12	
10	8	12	
6	5	12	
8	9	11	
4	8	13	
7	9	12	
7	3	11	
7	13	19	
7	6	13	
11	11	10	
3	8	13	
2	14	19	
6	9	10	
9	10	10	
4	10	13	
5	8	16	
5	5	18	
9	10	6	
6	8	10	
11	10	8	
4	9	13	
5	9	8	
13	4	6	
11	5	12	
7	11	9	
8	9	12	
7	6	7	
6	5	15	
8	4	22	
4	5	8	
10	10	8	
9	3	7	
8	9	14	
9	5	12	
11	9	10	
10	11	17	
6	7	9	
5	5	12	
8	9	12	
7	7	13	
5	6	11	
10	3	19	
9	10	17	
12	8	10	
6	13	7	
9	5	6	
15	7	8	
3	4	6	
6	11	11	
9	10	16	
4	3	13	
6	13	12	
7	8	9	
7	6	16	
8	7	13	
9	9	14	
10	7	12	
10	7	10	
5	11	15	
7	4	12	
10	9	12	
6	5	13	
10	8	10	
9	15	18	
11	4	16	
9	10	13	
11	10	13	
9	6	11	
6	8	11	
6	6	12	
4	6	11	
2	10	15	
8	3	17	
10	4	18	
4	3	14	
11	12	17	
6	7	13	
7	4	16	
7	7	7	
10	7	10	
9	8	7	
6	11	10	
10	7	14	
7	7	11	
8	15	16	
5	11	17	
11	7	9	
8	9	12	
10	12	17	
6	8	12	
6	12	16	
3	8	10	
7	8	12	
7	17	14	
6	11	4	
10	7	21	
7	5	12	
6	2	19	
8	6	12	
7	6	17	
12	6	12	
8	9	14	
9	7	17	
7	9	10	
3	7	11	
7	10	14	
9	9	7	
5	13	20	
9	9	6	
7	5	14	
4	9	10	
5	1	12	
4	5	6	
11	8	11	
7	7	11	
7	9	8	
6	8	11	
6	11	17	
7	9	8	
9	7	10	
5	4	11	
9	10	10	
11	5	11	
6	10	9	
7	6	19	
7	9	11	
4	10	12	
8	6	11	
5	5	13	
10	9	10	
2	8	15	
12	12	16	
5	10	10	
13	7	13	
10	9	15	
11	3	12	
7	10	12	
6	10	12	
4	7	8	
11	9	10	
5	2	10	
6	10	13	
7	15	7	
13	5	12	
6	10	6	
8	11	16	
14	7	11	
12	6	10	
7	4	13	
11	10	11	
9	11	15	
10	9	10	
9	7	12	
12	8	13	
7	8	8	
6	9	18	
4	13	12	
9	9	11	
4	10	11	
4	4	11	
6	3	15	
9	9	14	
8	8	17	
5	11	10	
7	9	11	
13	8	17	
7	10	16	
9	13	12	
10	9	13	
4	7	6	
6	8	6	
8	9	12	
7	8	15	
6	7	15	
9	9	13	
8	10	8	
8	8	14	
10	10	12	
9	10	12	
8	8	11	
4	7	16	
4	7	9	
3	12	16	
6	8	12	
7	12	10	
5	10	13	
2	7	14	
10	6	16	
7	6	8	
8	15	7	
4	9	10	
9	9	11	
6	7	15	
12	8	14	
7	10	10	
5	8	10	
6	4	12	
8	6	13	
9	3	12	
5	5	11	
5	12	8	
4	5	9	
6	11	14	
3	6	9	
10	4	15	
5	7	10	
7	6	16	
7	5	11	
11	9	11	
8	3	17	
8	10	10	
2	8	15	
9	8	7	
5	8	11	
5	8	15	
6	5	16	
5	5	8	
6	12	14	
12	10	6	
7	10	10	
5	11	12	
6	6	14	
9	9	9	
10	6	8	
5	10	8	
7	7	21	
11	3	12	
3	2	11	
13	6	13	
5	9	9	
7	9	12	
5	8	12	
8	8	9	
3	9	19	
10	6	9	
11	11	11	
7	11	12	
11	8	10	
9	8	9	
8	6	18	
8	9	13	
7	15	9	
3	5	13	
8	10	11	
7	10	12	
4	5	11	
7	9	14	
7	5	13	
8	9	12	
7	13	13	
7	11	10	
8	8	17	
9	10	15	
13	8	13	
2	12	8	
9	2	15	
4	9	21	
6	10	14	
1	8	20	
8	9	9	
6	6	13	
13	14	14	
11	6	10	
3	11	12	
9	5	13	
6	10	13	
5	6	13	
7	5	14	
6	11	10	
12	4	10	
6	3	16	
9	9	9	
8	1	8	
8	7	14	
9	9	14	
10	9	11	
9	5	7	
8	7	12	
6	9	9	
6	8	7	
10	6	12	
10	13	11	
5	1	7	
3	11	11	
9	7	11	
5	8	9	
4	3	13	
4	7	13	
4	9	12	
3	8	15	
8	5	15	
7	6	19	
6	6	12	
6	5	11	
9	7	18	
6	10	15	
4	7	13	
2	6	19	
10	6	5	
4	9	8	
6	6	7	
8	6	11	
6	6	13	
4	10	13	
10	5	11	
3	12	11	
5	5	18	
9	7	8	
7	8	13	
6	3	13	
4	8	13	
7	10	14	
6	8	6	
11	6	8	
4	5	10	
4	2	15	
5	12	9	
4	4	6	
7	4	6	
8	10	11	
5	9	7	
10	8	9	
7	9	14	
5	8	14	
4	2	13	
7	7	17	
6	5	11	
6	5	11	
8	5	8	
4	4	9	
6	8	18	
5	7	14	
7	10	8	
8	7	11	
4	4	16	
7	7	15	
5	9	3	
5	11	10	
5	3	12	
10	7	15	
9	4	8	
5	7	16	
5	6	16	
3	3	16	
4	12	9	
11	7	9	
8	11	12	
7	7	12	
7	7	10	
7	5	11	
7	6	6	
5	5	12	
5	6	10	
3	8	14	
9	8	18	
6	9	15	
8	8	16	
4	6	13	
6	1	8	
2	5	8	
7	6	13	
5	10	13	
6	4	13	
4	8	14	
6	8	11	
8	4	10	
10	2	11	
1	4	15	
6	5	14	
6	4	13	
6	7	8	
10	13	14	
5	7	12	
6	8	10	
12	5	11	
7	9	10	
7	13	10	
5	7	9	
7	5	10	
6	4	12	
4	3	12	
8	7	5	
10	6	14	
4	5	16	
12	3	14	
7	4	8	
4	6	8	
5	8	13	
8	10	13	
4	9	17	
8	8	4	
4	7	15	
5	11	6	
7	10	12	
8	9	15	
3	6	7	
8	6	11	
6	8	16	
4	5	10	
7	7	9	
1	4	5	
5	12	15	
7	3	11	
4	6	9	
8	9	8	
5	6	13	
8	7	12	
4	13	14	
6	8	13	
7	7	16	
7	7	10	
2	10	6	
11	9	11	
6	8	15	
7	8	10	
5	7	7	
3	10	13	
5	10	16	
4	4	13	
4	6	7	
6	9	17	
5	5	13	
6	8	12	
5	4	10	
4	12	14	
7	8	9	
8	7	7	
5	6	14	
9	6	9	
6	6	10	
6	6	16	
7	8	10	
7	6	13	
7	3	11	
6	4	9	
8	7	10	
3	5	6	
5	7	12	
5	4	5	
4	9	12	
7	6	15	
9	11	11	
6	6	8	
5	5	12	
3	6	12	
5	6	15	
6	5	20	
5	9	16	
7	5	7	
6	9	11	
5	8	14	
4	6	16	
4	6	12	
1	9	12	
6	6	9	
6	4	9	
7	8	11	
9	6	8	
4	7	18	
12	10	10	
9	7	9	
7	7	8	
3	7	8	
7	10	10	
8	8	15	
6	8	13	
4	7	16	
7	4	10	
4	6	11	
8	6	9	
3	5	11	
3	3	13	
10	7	13	
8	3	15	
8	9	12	
9	4	10	
3	7	10	
4	6	7	
6	4	9	
8	11	12	
8	4	9	
7	9	12	
4	6	10	
5	5	10	
6	6	15	
5	5	9	
8	6	11	
7	6	15	
5	3	3	
5	4	12	
3	7	15	
7	6	10	
7	9	10	
7	12	9	
6	5	5	
5	4	10	
4	2	9	
4	4	9	
10	5	10	
7	4	8	
6	7	9	
9	5	13	
8	6	12	
7	6	10	
8	9	15	
11	5	13	
7	8	12	
4	9	17	
7	5	13	
8	6	8	
2	10	12	
7	4	9	
8	12	16	
6	6	16	
5	10	16	
7	5	6	
6	3	11	
6	4	13	
4	4	13	
7	8	12	
7	8	10	
10	3	14	
6	7	8	
4	6	12	
8	4	17	
4	12	10	
6	5	15	
5	7	10	
5	14	6	
3	14	8	
9	8	10	
7	15	8	
5	10	13	
6	3	17	
9	5	8	
5	8	8	
8	10	10	
5	3	12	
3	10	7	
4	4	14	
3	6	16	
5	7	6	
3	8	10	
10	7	11	
5	5	9	
5	7	12	
3	9	15	
4	8	15	
6	10	9	
7	5	17	
8	10	5	
3	7	10	
8	6	6	
6	11	15	
7	12	17	
7	8	8	
5	3	11	
7	10	11	
3	4	9	
5	7	21	
7	5	8	
5	10	10	
5	7	13	
12	7	12	
6	6	4	
8	3	10	
9	7	10	
1	5	5	
3	7	12	
5	5	11	
3	5	15	
3	5	8	
4	5	6	
11	11	7	
11	10	11	
9	8	9	
6	9	9	
4	8	10	
9	7	6	
4	6	11	
8	3	11	
6	7	15	
11	9	12	
11	8	13	
4	7	12	
8	6	18	
10	9	8	
2	10	17	
4	5	12	
6	12	12	
6	8	11	
7	6	11	
4	4	11	
8	7	11	
5	7	9	
3	9	10	
8	3	13	
4	9	14	
7	12	15	
8	6	6	
3	6	12	
3	5	11	
3	5	11	
9	9	7	
6	5	19	
6	7	12	
8	5	8	
2	5	9	
3	5	8	
3	9	14	
8	5	12	
5	6	12	
6	7	14	
10	5	11	
4	5	12	
6	11	10	
7	5	13	
6	9	11	
7	2	10	
9	6	13	
4	7	10	
7	2	16	
9	9	7	
3	9	10	
5	7	13	
3	9	9	
6	7	7	
4	5	7	
7	8	6	
7	6	10	
5	12	14	
10	8	18	
8	5	7	
5	4	10	
5	10	16	
3	8	12	
3	7	12	
2	7	15	
4	6	12	
6	4	16	
8	6	12	
6	5	6	
4	11	10	
8	9	8	
5	9	9	
4	8	12	
6	5	12	
7	5	11	
4	3	17	
10	10	9	
5	3	14	
3	9	12	
7	8	16	
5	5	8	
2	8	9	
3	8	12	
8	4	9	
4	6	18	
7	3	6	
4	6	11	
7	13	6	
11	5	16	
8	9	10	
2	6	9	
3	6	7	
8	4	10	
8	4	20	
10	7	4	
3	2	11	
4	9	14	
5	5	17	
7	6	10	
8	9	5	
6	9	15	
5	8	9	
3	5	7	
5	8	9	
6	7	8	
4	5	10	
8	10	13	
6	6	10	
4	9	23	
4	6	9	
6	7	13	
8	5	7	
4	1	7	
6	5	9	
4	4	9	
5	8	11	
3	7	12	
5	5	13	
4	9	6	
9	11	8	
7	4	7	
6	4	16	
12	4	16	
5	8	8	
4	8	12	
5	6	16	
7	4	17	
6	8	14	
6	9	8	
5	4	11	
8	5	10	
3	7	8	
9	7	16	
4	7	5	
7	8	14	
7	9	16	
4	5	14	
6	6	14	
3	7	6	
6	3	10	
6	3	16	
8	4	10	
8	8	16	
7	6	11	
3	5	15	
6	10	12	
8	8	17	
5	5	8	
8	6	9	
4	10	15	
7	7	14	
8	8	11	
4	4	12	
10	7	14	
3	4	7	
4	2	11	
6	2	10	
7	8	5	
10	4	7	
4	6	12	
8	5	12	
4	1	12	
4	8	14	
6	11	10	
6	4	19	
7	3	10	
6	11	13	
6	5	13	
11	9	8	
11	3	22	
4	10	11	
6	4	10	
1	3	14	
7	9	11	
4	4	9	
6	9	6	
2	6	10	
5	2	14	
7	6	13	
7	4	8	
6	6	9	
4	5	7	
6	3	20	
6	8	9	
6	8	10	
8	7	15	
6	9	11	
5	5	11	
10	9	9	
6	9	9	
3	6	9	
4	4	11	
7	8	13	
5	6	10	
7	3	14	
7	16	10	
7	12	12	
4	9	15	
8	3	10	
4	8	10	
5	7	8	
5	7	6	
4	6	13	
4	5	5	
10	8	11	
4	6	14	
3	7	6	
5	8	15	
4	8	16	
7	4	6	
6	10	5	
5	4	9	
6	5	17	
8	5	9	
9	4	12	
7	8	17	
6	8	11	
3	6	9	
7	8	13	
5	8	13	
4	8	11	
5	7	8	
6	3	10	
8	9	13	
7	5	9	
3	8	12	
8	5	13	
5	6	12	
6	4	13	
7	2	14	
5	3	13	
2	7	11	
5	3	10	
2	6	20	
6	3	10	
7	6	6	
3	3	9	
5	10	10	
6	9	8	
5	10	11	
5	5	11	
6	8	12	
7	7	11	
5	7	13	
7	2	15	
6	8	16	
4	4	5	
3	12	12	
8	10	13	
6	6	13	
6	11	10	
3	3	6	
5	9	12	
10	8	15	
5	4	17	
5	12	11	
6	8	13	
4	6	12	
5	4	15	
6	9	10	
2	6	12	
4	8	12	
7	2	13	
9	9	13	
5	5	13	
2	4	8	
6	9	10	
5	4	11	
10	7	19	
9	5	9	
5	4	10	
6	8	10	
5	6	19	
11	6	7	
3	4	12	
4	4	6	
7	4	10	
3	8	15	
6	3	10	
7	6	8	
6	5	12	
4	5	8	
5	3	11	
3	4	11	
6	2	9	
6	11	6	
6	9	12	
6	4	10	
9	6	13	
4	4	6	
9	3	16	
1	5	20	
10	5	7	
7	5	10	
7	2	13	
6	4	18	
4	8	15	
6	4	12	
2	4	12	
8	7	10	
3	5	14	
7	6	11	
8	4	12	
3	3	16	
10	6	8	
6	6	15	
8	8	9	
6	8	7	
11	10	6	
5	2	10	
4	7	10	
2	12	7	
7	12	9	
8	4	8	
7	8	11	
3	5	8	
9	6	15	
1	4	8	
6	10	15	
7	11	13	
6	10	6	
4	5	9	
4	7	8	
8	11	10	
4	7	6	
4	8	15	
3	3	11	
7	7	14	
6	7	13	
7	5	16	
2	6	18	
2	7	7	
7	5	8	
6	8	12	
6	5	21	
5	7	11	
10	7	10	
5	6	13	
7	6	14	
5	7	4	
9	0	14	
3	3	5	
4	4	10	
5	4	10	
3	3	8	
4	8	10	
7	6	10	
4	8	12	
9	9	10	
3	3	11	
5	3	10	
5	5	7	
9	8	13	
3	9	12	
7	8	13	
7	6	5	
7	4	11	
4	6	8	
4	5	13	
6	7	12	
5	10	13	
13	6	13	
2	4	11	
8	5	12	
5	7	6	
5	6	6	
4	5	13	
5	6	11	
9	6	6	
6	9	12	
5	5	11	
8	4	15	
9	7	9	
8	5	12	
4	6	13	
6	5	8	
6	5	8	
5	4	7	
2	6	8	
3	6	11	
5	9	8	
6	6	16	
3	5	10	
7	3	16	
7	13	8	
13	10	10	
4	7	6	
9	6	18	
3	5	9	
7	7	3	
5	4	11	
4	5	12	
3	6	13	
13	4	9	
7	7	10	
4	7	10	
2	11	11	
4	2	14	
6	1	18	
3	6	10	
4	5	12	
3	6	15	
5	9	7	
7	4	15	
7	4	9	
2	7	8	
7	8	15	
7	5	14	
6	9	12	
2	6	10	
3	6	11	
5	8	14	
8	4	10	
6	11	5	
7	5	5	
7	7	11	
4	3	20	
6	8	13	
1	5	10	
5	9	8	
4	8	6	
6	8	18	
6	7	9	
3	7	11	
4	5	8	
5	11	11	
6	4	12	
4	3	5	
3	11	10	
8	8	13	
7	2	6	
3	6	6	
7	9	13	
7	2	9	
5	2	9	
6	6	5	
