#PicoHarp 300  Histogram Data			03/28/2023 12:27:43 PM
#channels per curve
15625
#display curve no.
0	1	2	
#memory block no.
0	1	2	
#ns/channel
0.1280	0.1280	0.1280	
#counts
0	0	1	
1	0	0	
0	0	1	
0	3	2	
0	0	0	
0	1	0	
0	2	0	
0	1	1	
0	1	0	
0	2	2	
0	0	0	
0	0	4	
0	0	1	
0	0	0	
0	0	1	
1	1	2	
1	0	2	
0	0	2	
0	1	2	
0	1	1	
1	1	1	
0	0	1	
0	2	1	
0	0	2	
0	2	0	
0	0	0	
0	1	0	
0	0	0	
1	0	2	
0	0	0	
1	1	1	
0	0	3	
0	0	1	
0	0	1	
0	0	0	
0	1	0	
0	0	0	
0	0	1	
1	1	0	
1	0	2	
0	0	5	
1	1	3	
1	0	3	
1	1	0	
0	0	1	
0	1	1	
0	0	1	
2	0	2	
1	0	1	
1	0	0	
0	1	1	
0	0	2	
0	0	1	
0	0	4	
0	1	1	
0	2	0	
0	1	0	
1	0	4	
0	0	2	
0	0	2	
0	2	1	
0	0	4	
0	1	3	
0	0	2	
2	0	1	
1	1	0	
1	2	2	
0	2	3	
3	7	4	
8	8	12	
22	20	32	
39	27	45	
38	56	76	
66	68	89	
73	84	100	
82	70	100	
100	90	85	
92	89	99	
99	100	87	
73	87	77	
100	85	81	
88	100	76	
97	79	76	
94	80	69	
92	85	68	
86	87	77	
85	75	72	
74	73	62	
73	75	64	
83	75	54	
66	84	65	
69	70	70	
90	90	67	
76	70	62	
80	54	59	
73	71	53	
92	69	72	
70	58	50	
75	65	55	
73	67	63	
74	67	50	
80	73	59	
83	50	64	
61	60	49	
79	62	60	
63	62	50	
73	56	73	
77	71	55	
79	62	56	
80	69	49	
73	69	51	
82	71	59	
76	57	56	
66	56	50	
64	45	48	
75	54	63	
78	53	49	
51	57	42	
77	62	49	
53	49	56	
70	62	51	
76	57	50	
62	70	44	
53	54	55	
77	48	57	
63	56	53	
54	60	60	
62	57	59	
59	61	40	
67	49	54	
63	64	52	
65	58	32	
54	63	52	
63	63	45	
55	54	42	
47	50	42	
66	61	44	
62	53	46	
50	52	41	
53	47	38	
56	41	43	
55	57	45	
59	53	43	
64	59	38	
57	55	50	
60	61	34	
56	59	54	
70	55	42	
53	57	45	
58	43	39	
56	52	35	
55	56	32	
45	41	44	
44	53	39	
56	49	35	
52	43	39	
49	56	49	
58	54	46	
55	47	33	
70	57	40	
67	55	31	
54	57	43	
64	53	48	
57	59	41	
56	49	48	
52	52	34	
64	44	43	
48	48	49	
48	51	47	
48	51	40	
61	52	49	
46	53	33	
47	52	39	
42	57	40	
57	50	38	
61	39	46	
58	45	34	
45	62	33	
46	48	35	
62	46	39	
56	39	34	
53	52	22	
60	53	40	
58	44	34	
39	47	39	
60	44	42	
50	40	33	
50	49	49	
48	44	47	
56	50	40	
42	51	40	
58	58	30	
56	45	30	
53	47	43	
59	58	24	
37	44	52	
50	40	34	
61	46	41	
56	44	45	
35	45	38	
50	55	20	
55	42	26	
55	35	42	
57	43	31	
49	46	37	
38	35	40	
45	36	48	
54	53	37	
36	45	33	
41	38	31	
42	39	38	
33	60	41	
59	38	38	
52	46	37	
38	39	37	
44	47	37	
45	38	48	
59	44	26	
57	39	38	
43	43	26	
54	45	36	
43	44	43	
46	48	39	
51	49	33	
36	35	28	
44	42	46	
43	59	40	
49	39	42	
57	38	27	
48	42	31	
45	54	39	
45	43	39	
51	44	25	
54	35	31	
47	48	36	
42	48	35	
51	48	39	
42	48	33	
42	53	37	
33	37	33	
40	44	30	
39	38	28	
46	45	32	
59	37	40	
46	45	41	
40	36	32	
45	51	36	
48	32	36	
42	48	33	
49	45	28	
46	42	29	
46	34	34	
41	38	36	
38	39	31	
48	46	33	
48	31	30	
43	30	33	
43	38	38	
43	45	26	
40	48	24	
40	38	28	
41	36	35	
50	35	22	
45	32	21	
46	44	33	
46	52	31	
40	42	45	
48	48	36	
38	35	27	
45	39	33	
38	36	26	
38	38	19	
46	33	41	
48	39	34	
53	38	28	
36	46	31	
42	47	26	
36	45	35	
40	31	36	
53	26	28	
33	45	29	
37	27	31	
47	33	47	
46	46	33	
32	40	26	
50	44	41	
40	46	34	
34	32	32	
42	42	31	
34	38	32	
44	36	39	
38	34	31	
42	29	26	
43	34	25	
41	34	26	
52	43	30	
38	47	33	
34	36	33	
38	38	26	
47	32	27	
39	25	25	
35	33	31	
43	31	34	
34	40	26	
50	36	34	
45	41	27	
36	27	25	
52	33	35	
38	24	30	
38	37	29	
40	37	27	
42	32	22	
28	40	32	
41	35	22	
49	31	28	
33	34	21	
42	35	21	
40	34	23	
39	35	32	
31	35	22	
31	45	26	
37	33	22	
41	29	30	
41	44	35	
37	35	27	
31	39	23	
40	35	26	
36	32	30	
21	29	32	
42	47	29	
39	23	36	
38	40	29	
32	45	28	
40	44	33	
34	44	39	
42	36	28	
48	40	23	
31	36	27	
43	28	24	
40	30	21	
42	37	30	
28	41	32	
37	36	23	
41	38	24	
34	37	23	
37	43	27	
35	32	22	
28	35	26	
35	33	22	
33	31	28	
38	36	29	
40	36	29	
53	35	27	
40	26	28	
40	37	29	
45	49	17	
31	46	29	
37	35	25	
27	23	35	
30	30	34	
36	34	19	
48	32	28	
34	30	28	
33	37	28	
41	40	22	
29	33	35	
38	23	20	
37	39	26	
38	32	19	
30	33	27	
36	30	22	
47	31	28	
42	24	21	
26	29	23	
35	30	29	
40	35	31	
27	28	24	
32	30	15	
42	43	25	
42	39	23	
31	23	25	
47	36	24	
41	32	20	
32	33	21	
40	31	26	
40	41	23	
43	33	18	
34	32	21	
28	26	40	
32	33	31	
38	21	27	
28	25	25	
40	43	29	
46	28	26	
31	27	22	
28	34	26	
30	40	22	
37	32	32	
46	24	24	
42	31	25	
36	23	29	
20	37	19	
23	31	23	
37	40	25	
39	31	23	
33	25	24	
27	30	23	
42	31	18	
26	37	27	
28	28	26	
26	34	21	
33	34	27	
35	28	20	
36	21	22	
33	30	22	
27	46	19	
31	28	28	
32	26	24	
32	31	21	
37	26	21	
30	38	24	
35	30	23	
43	38	21	
34	36	26	
26	29	24	
29	30	32	
29	33	29	
41	23	32	
38	25	24	
43	34	28	
30	34	30	
29	32	14	
29	37	21	
34	32	20	
27	45	33	
26	44	25	
24	28	26	
28	29	30	
37	37	16	
37	42	15	
37	28	20	
41	28	19	
34	25	24	
26	36	27	
34	39	27	
35	28	24	
46	25	13	
38	33	19	
43	35	27	
28	30	19	
30	35	22	
32	32	28	
26	29	19	
32	26	21	
37	24	23	
26	36	28	
32	36	39	
40	21	24	
34	29	26	
22	35	20	
32	31	20	
30	23	19	
27	36	22	
22	35	21	
24	33	9	
25	33	19	
34	37	20	
32	28	19	
26	30	16	
30	28	14	
26	29	20	
39	32	19	
23	21	24	
37	30	19	
27	24	29	
37	25	23	
33	29	26	
37	30	17	
28	27	18	
29	36	26	
32	19	24	
28	29	18	
39	32	30	
24	24	22	
27	26	29	
27	20	12	
21	33	29	
27	33	20	
29	31	24	
29	26	22	
28	29	17	
31	26	25	
25	20	26	
31	35	20	
32	26	24	
36	25	21	
32	25	27	
28	23	24	
35	20	26	
37	25	17	
37	32	16	
34	23	27	
41	25	21	
24	23	20	
34	23	18	
25	31	22	
30	26	22	
24	33	20	
35	29	17	
29	30	23	
28	26	23	
27	27	20	
27	38	19	
33	38	23	
29	35	25	
23	24	14	
37	37	24	
27	30	18	
37	27	20	
34	20	19	
27	33	16	
24	37	25	
35	19	21	
29	24	24	
37	39	18	
32	25	19	
27	31	15	
29	20	21	
20	31	28	
34	29	20	
27	22	17	
34	25	15	
26	22	24	
29	31	13	
20	32	14	
32	19	21	
31	27	30	
26	32	23	
30	27	16	
36	32	18	
32	30	16	
30	25	18	
25	18	22	
28	24	21	
22	22	20	
23	28	19	
33	28	22	
23	20	17	
35	26	20	
29	24	20	
24	22	22	
29	25	15	
25	34	19	
20	32	22	
36	31	12	
35	25	23	
25	23	26	
25	40	13	
22	27	17	
32	26	17	
34	28	12	
37	36	23	
36	35	10	
30	34	21	
32	23	18	
22	28	22	
18	30	24	
30	20	15	
21	28	31	
35	19	20	
32	23	17	
26	24	11	
25	34	20	
36	29	25	
25	22	24	
26	25	12	
39	24	21	
26	17	27	
13	23	18	
32	24	24	
31	24	23	
26	18	17	
25	22	14	
23	16	23	
22	25	27	
24	18	17	
20	20	12	
31	25	15	
20	26	33	
27	19	20	
35	22	17	
26	26	29	
24	26	13	
22	24	16	
20	24	30	
25	16	15	
34	22	23	
19	21	25	
19	29	13	
30	25	20	
34	31	20	
29	31	21	
23	21	18	
22	20	18	
26	30	14	
22	35	18	
34	24	12	
31	25	14	
29	27	13	
21	24	21	
27	17	23	
21	26	14	
24	31	20	
26	31	18	
29	28	20	
26	20	16	
37	18	27	
27	25	24	
15	27	14	
23	17	19	
29	17	12	
29	20	20	
22	17	16	
26	24	21	
31	19	16	
24	31	9	
30	18	19	
25	26	23	
34	21	19	
31	22	21	
20	32	18	
23	32	20	
32	18	24	
22	24	15	
22	26	18	
22	20	27	
25	29	18	
26	16	16	
23	15	21	
23	20	21	
28	21	17	
22	25	19	
22	27	16	
22	27	9	
19	18	23	
30	26	20	
20	27	15	
23	25	19	
27	25	17	
31	25	21	
23	22	17	
28	22	19	
29	27	16	
23	21	15	
28	22	21	
24	29	13	
26	27	18	
30	26	19	
32	26	20	
23	28	16	
26	21	25	
25	29	20	
27	25	21	
26	27	20	
27	20	14	
21	24	12	
25	29	12	
38	26	15	
22	12	22	
20	25	20	
18	27	6	
24	27	23	
15	29	11	
29	17	18	
27	19	14	
31	27	26	
25	20	15	
25	31	6	
18	24	15	
27	28	21	
28	25	21	
24	31	15	
29	36	24	
23	24	16	
29	24	22	
18	26	16	
27	14	22	
14	19	21	
23	18	13	
28	21	20	
22	22	9	
28	22	23	
25	24	16	
30	12	21	
12	26	13	
33	22	11	
31	10	10	
22	24	7	
26	20	15	
24	20	22	
24	15	11	
21	20	24	
21	25	17	
30	29	15	
18	21	11	
24	19	13	
27	27	17	
25	30	13	
20	27	16	
23	20	13	
28	24	16	
31	20	9	
26	29	13	
31	22	19	
22	27	16	
21	28	13	
17	25	14	
26	29	6	
21	19	12	
27	21	17	
19	20	20	
19	24	14	
21	21	15	
25	26	15	
20	18	30	
24	28	20	
14	20	14	
17	24	14	
29	18	26	
24	27	13	
26	16	16	
16	16	13	
24	28	15	
22	23	11	
17	17	10	
22	21	19	
19	31	17	
19	23	11	
17	25	17	
22	24	14	
22	16	17	
25	27	17	
22	18	17	
20	28	12	
19	20	19	
20	18	11	
24	22	16	
27	15	16	
21	36	15	
19	20	11	
20	21	10	
26	24	12	
31	29	17	
32	18	10	
22	11	11	
19	30	10	
19	23	11	
28	19	12	
25	19	16	
31	22	13	
20	20	18	
28	17	17	
20	18	19	
20	24	20	
15	24	16	
20	20	14	
18	14	12	
18	17	19	
23	21	8	
18	25	10	
18	30	16	
21	26	15	
27	20	27	
22	25	16	
18	20	18	
20	15	13	
24	16	11	
21	17	13	
27	22	12	
22	15	11	
24	16	15	
18	20	15	
21	17	10	
12	20	15	
14	29	16	
27	19	10	
19	24	22	
24	21	15	
17	15	19	
21	18	14	
26	20	15	
15	29	14	
19	21	18	
23	17	19	
18	18	17	
20	26	22	
18	21	15	
16	17	16	
22	20	12	
30	18	19	
21	23	20	
27	11	18	
24	22	18	
27	16	13	
29	23	17	
21	19	15	
30	23	22	
8	16	8	
22	18	16	
16	15	20	
18	26	16	
22	19	17	
19	22	13	
25	25	12	
18	19	11	
19	18	14	
24	11	10	
19	20	17	
23	15	14	
16	21	17	
24	19	22	
15	19	12	
24	23	11	
17	14	18	
22	20	17	
19	24	13	
21	19	17	
24	21	7	
16	15	14	
21	23	10	
18	23	19	
24	22	3	
15	12	9	
12	16	15	
17	20	23	
16	23	16	
21	27	16	
27	14	7	
23	19	12	
22	22	18	
25	18	16	
21	17	14	
19	20	16	
25	22	18	
18	23	8	
19	21	8	
18	16	19	
26	12	11	
21	15	14	
16	18	13	
16	23	14	
18	18	11	
17	14	18	
18	24	7	
18	30	9	
22	16	14	
22	28	20	
20	26	15	
27	22	19	
18	13	9	
25	13	22	
17	28	23	
15	21	15	
22	18	11	
17	15	19	
26	22	16	
25	22	10	
17	14	13	
25	14	17	
17	19	18	
18	18	20	
22	17	16	
24	20	13	
26	14	8	
18	13	17	
14	20	13	
17	20	14	
26	18	13	
27	23	16	
10	20	18	
17	19	14	
16	18	14	
18	19	16	
24	26	13	
25	20	16	
19	22	19	
20	24	12	
22	20	9	
18	11	17	
22	23	9	
21	12	11	
21	19	10	
21	17	7	
10	22	14	
21	20	18	
25	20	12	
21	18	11	
11	14	26	
21	16	20	
17	21	16	
20	19	17	
23	15	16	
16	19	19	
21	11	11	
15	26	12	
22	22	15	
22	16	13	
16	17	17	
17	24	14	
23	18	13	
18	21	12	
26	16	21	
31	20	14	
19	16	19	
24	13	17	
14	24	13	
24	20	8	
19	13	10	
19	23	8	
18	22	8	
23	16	15	
18	25	11	
31	13	9	
9	18	10	
19	7	13	
18	22	13	
22	23	13	
16	19	22	
19	13	10	
21	16	13	
15	22	11	
16	12	9	
20	21	11	
21	20	14	
18	29	13	
18	19	17	
18	16	8	
22	16	16	
19	15	15	
15	18	13	
16	19	15	
22	16	17	
21	17	10	
32	17	10	
22	18	11	
19	21	18	
15	23	14	
27	12	19	
18	17	16	
9	17	10	
19	19	9	
27	20	8	
24	17	20	
26	25	20	
11	17	18	
17	17	15	
17	12	19	
15	17	19	
14	14	13	
14	15	7	
21	11	12	
21	20	13	
15	23	13	
24	14	14	
12	17	16	
20	18	10	
20	25	10	
22	16	9	
25	22	15	
10	19	15	
17	12	11	
21	11	9	
18	18	20	
16	16	6	
15	11	9	
17	23	15	
18	10	20	
15	15	10	
24	15	10	
17	20	11	
15	24	9	
19	17	17	
25	10	14	
21	15	12	
13	14	15	
12	16	11	
24	21	8	
22	13	9	
14	17	13	
12	15	15	
16	20	6	
19	26	12	
14	21	16	
21	17	13	
17	20	11	
16	12	10	
24	14	11	
18	18	12	
12	19	11	
23	12	19	
16	16	6	
17	23	11	
26	14	14	
22	21	7	
18	13	15	
25	15	14	
10	17	11	
19	19	14	
20	19	14	
24	18	11	
12	16	8	
18	19	11	
24	15	13	
21	17	8	
25	17	12	
20	9	8	
13	15	11	
15	21	8	
17	20	17	
17	13	10	
14	15	17	
12	16	8	
16	19	16	
13	14	20	
11	22	12	
18	20	15	
22	13	18	
19	10	19	
22	16	13	
22	13	9	
11	12	14	
17	19	24	
20	18	10	
15	13	13	
12	17	10	
16	13	9	
23	13	10	
14	21	10	
15	17	11	
18	14	17	
9	19	10	
18	10	17	
12	19	9	
20	16	9	
15	16	9	
16	19	17	
16	18	19	
22	16	12	
21	23	8	
6	21	13	
18	13	8	
11	21	13	
16	16	10	
19	17	9	
21	14	22	
17	19	13	
12	17	20	
20	21	15	
23	20	17	
20	17	14	
19	13	21	
13	11	7	
13	23	8	
25	15	9	
14	13	13	
20	15	16	
19	9	10	
19	18	13	
10	19	14	
13	17	9	
12	18	12	
15	23	13	
14	9	8	
24	12	14	
28	16	13	
25	19	10	
15	22	13	
22	11	6	
14	18	10	
17	23	13	
17	20	11	
14	23	12	
11	14	12	
9	20	18	
26	9	8	
8	16	22	
15	18	9	
16	16	14	
15	12	10	
19	13	16	
12	23	6	
19	14	8	
10	18	13	
17	18	10	
18	15	10	
13	15	12	
14	19	7	
15	13	14	
23	18	20	
18	22	13	
12	18	13	
15	12	13	
22	21	7	
14	17	8	
13	11	22	
13	17	16	
25	14	10	
13	16	8	
17	14	14	
17	24	12	
14	13	19	
14	17	13	
16	17	16	
15	26	19	
19	11	8	
14	17	9	
14	14	13	
19	9	12	
22	15	14	
16	20	9	
16	11	11	
15	18	12	
19	18	13	
11	16	19	
12	10	6	
16	17	7	
15	15	12	
17	13	7	
15	19	19	
13	19	9	
15	12	15	
15	14	15	
17	13	7	
7	13	8	
10	16	11	
15	22	12	
12	27	9	
18	17	14	
16	16	22	
18	17	14	
14	16	17	
14	18	12	
24	16	14	
12	21	15	
21	12	18	
14	17	6	
20	10	13	
20	17	12	
17	12	14	
11	18	7	
19	14	10	
15	17	8	
17	19	13	
19	15	13	
14	13	14	
16	23	7	
14	14	9	
7	15	17	
12	19	8	
20	19	15	
15	15	11	
10	13	18	
17	11	14	
24	16	12	
20	15	15	
18	23	16	
12	12	8	
17	8	9	
14	16	6	
17	14	13	
18	20	14	
18	8	12	
14	25	8	
15	10	13	
10	22	8	
14	12	14	
11	15	16	
16	15	8	
14	18	11	
17	17	10	
14	21	11	
17	13	12	
13	11	9	
21	17	11	
13	22	6	
19	9	9	
23	14	12	
15	18	9	
9	11	10	
17	17	9	
17	22	9	
9	14	11	
7	13	11	
22	10	13	
11	16	8	
16	19	16	
12	20	15	
9	12	12	
12	12	8	
18	16	9	
15	16	8	
18	15	16	
15	16	20	
15	14	18	
13	17	18	
13	19	13	
20	16	9	
12	21	14	
18	14	19	
14	17	11	
17	14	8	
22	16	7	
10	17	11	
15	14	9	
17	11	7	
11	20	8	
14	22	12	
19	7	6	
21	13	11	
11	15	8	
17	10	5	
11	14	8	
19	14	15	
21	8	10	
20	10	13	
14	14	15	
17	13	12	
10	20	10	
12	13	13	
13	11	9	
20	12	10	
15	12	10	
15	13	8	
14	13	15	
15	16	10	
12	13	12	
12	10	10	
11	12	9	
18	14	9	
19	9	8	
11	9	9	
15	9	13	
19	20	12	
8	9	14	
14	15	12	
12	13	9	
11	13	11	
13	16	10	
16	9	7	
18	15	15	
11	11	12	
15	13	9	
13	19	11	
12	12	13	
11	17	14	
13	11	11	
9	15	16	
13	10	10	
15	16	10	
15	18	15	
22	17	12	
14	18	10	
12	17	8	
19	11	11	
17	19	13	
18	14	8	
13	17	12	
15	11	11	
11	16	11	
10	18	2	
26	18	7	
15	12	10	
16	10	9	
6	12	6	
11	15	10	
19	6	5	
11	11	10	
11	16	13	
12	13	7	
13	12	10	
15	12	12	
11	15	13	
15	18	11	
15	14	15	
12	15	10	
11	15	13	
11	12	7	
9	17	12	
28	11	8	
19	13	14	
6	8	19	
16	16	13	
12	13	9	
17	9	14	
12	14	13	
19	18	12	
13	17	9	
14	14	7	
10	5	14	
15	15	6	
12	8	10	
10	18	10	
19	19	9	
14	9	6	
12	14	10	
19	15	8	
19	15	16	
20	13	15	
20	12	12	
18	13	8	
19	8	14	
19	18	8	
15	13	11	
11	14	6	
7	12	14	
18	12	12	
16	22	10	
10	20	10	
12	8	7	
11	14	14	
18	11	18	
19	16	12	
9	9	10	
19	18	9	
16	13	7	
14	16	8	
11	19	8	
16	13	15	
8	21	13	
16	19	19	
10	16	10	
6	13	13	
8	11	15	
10	15	5	
16	16	12	
11	15	14	
18	10	13	
20	16	11	
9	19	17	
13	13	12	
12	13	12	
10	13	9	
7	13	10	
11	17	16	
11	22	8	
12	16	9	
11	19	8	
19	13	11	
14	10	12	
15	10	9	
22	15	6	
19	15	7	
15	18	15	
12	19	14	
10	13	14	
15	15	8	
20	9	12	
22	10	7	
11	11	18	
15	10	12	
17	10	9	
14	10	11	
10	15	10	
11	18	7	
13	13	9	
17	11	13	
15	15	6	
12	7	14	
15	19	11	
11	17	10	
13	16	11	
5	17	12	
8	18	9	
11	12	11	
7	13	15	
13	15	6	
11	13	10	
17	17	12	
14	10	11	
16	9	10	
7	9	13	
16	14	9	
11	11	10	
14	12	9	
17	18	5	
19	10	9	
18	17	11	
12	9	9	
14	12	10	
14	11	11	
11	8	11	
12	13	10	
12	10	12	
19	10	5	
12	11	10	
10	14	9	
15	16	9	
12	18	11	
23	13	12	
13	12	7	
14	9	7	
10	11	13	
12	22	11	
16	15	14	
13	19	14	
13	6	8	
7	14	9	
8	16	12	
17	12	10	
11	13	5	
10	12	4	
17	9	9	
8	13	14	
15	12	11	
18	11	5	
17	6	10	
14	12	8	
8	12	5	
18	17	8	
14	13	2	
5	8	12	
14	15	11	
18	11	17	
12	12	8	
14	9	8	
11	19	14	
16	17	8	
10	12	11	
8	12	7	
14	13	8	
7	7	17	
14	17	7	
12	16	7	
13	9	11	
11	10	7	
7	12	7	
15	10	13	
10	14	8	
12	13	9	
8	9	8	
12	9	9	
11	14	12	
5	9	7	
15	9	7	
17	14	8	
16	12	14	
9	14	11	
9	10	12	
14	17	5	
19	14	10	
15	4	10	
19	11	12	
18	16	14	
15	14	8	
15	10	9	
10	12	5	
17	21	14	
12	10	4	
8	11	5	
11	11	13	
10	13	9	
9	10	14	
17	12	9	
11	19	7	
12	12	10	
13	11	10	
17	19	12	
14	3	11	
14	12	17	
14	16	14	
9	14	10	
12	14	7	
7	18	6	
17	13	11	
10	3	15	
9	11	10	
13	9	6	
14	11	6	
9	10	13	
15	15	5	
13	13	11	
17	12	14	
16	11	7	
12	16	8	
12	12	8	
10	15	8	
14	14	5	
13	15	8	
11	13	12	
13	12	7	
10	9	14	
14	15	8	
11	13	10	
8	4	4	
22	16	10	
11	16	11	
22	9	12	
10	21	11	
13	12	6	
16	12	12	
12	10	8	
21	12	9	
7	16	10	
13	17	7	
12	14	9	
20	16	7	
10	7	12	
8	16	7	
9	15	7	
12	15	4	
11	8	14	
7	15	10	
13	9	10	
14	13	8	
13	9	7	
19	14	14	
15	11	10	
13	11	7	
14	13	8	
7	10	3	
8	14	9	
13	9	11	
11	15	11	
13	15	11	
8	5	15	
14	7	9	
20	10	8	
16	8	11	
13	4	13	
17	12	7	
13	16	13	
13	14	6	
19	11	13	
16	18	9	
11	12	8	
15	15	9	
16	8	10	
12	9	13	
14	14	5	
12	16	9	
18	17	9	
6	9	13	
13	12	10	
9	12	12	
11	10	7	
14	8	7	
9	15	12	
12	7	14	
13	14	7	
16	15	10	
12	16	10	
7	8	13	
14	14	17	
15	14	8	
7	9	11	
14	7	6	
12	13	12	
15	3	6	
12	15	13	
18	10	8	
13	17	6	
16	11	11	
11	11	11	
13	12	6	
17	13	10	
10	16	9	
9	19	10	
14	11	8	
6	16	14	
12	10	8	
12	11	11	
9	7	7	
17	11	10	
18	7	5	
9	13	8	
16	14	2	
11	17	10	
11	10	12	
11	11	13	
11	14	14	
12	11	8	
12	10	7	
7	7	10	
15	12	12	
9	16	12	
7	9	6	
15	14	10	
11	14	9	
12	12	3	
12	16	22	
15	12	9	
8	9	12	
8	7	5	
8	10	5	
10	18	13	
9	13	7	
5	11	8	
12	13	6	
15	14	9	
15	11	7	
12	18	6	
9	11	11	
14	7	11	
7	7	11	
18	5	8	
10	15	6	
12	15	14	
8	17	9	
5	14	5	
10	12	13	
8	10	8	
22	11	14	
7	13	15	
8	9	8	
15	8	11	
10	12	9	
13	13	12	
12	7	10	
18	9	7	
17	12	11	
9	7	12	
14	12	6	
14	9	6	
12	11	4	
15	14	13	
11	10	9	
17	13	9	
17	12	8	
9	13	10	
7	11	5	
12	13	6	
14	12	6	
13	16	11	
20	11	11	
10	15	12	
12	10	10	
9	5	7	
9	11	5	
5	16	6	
21	11	11	
6	9	14	
13	13	12	
13	12	7	
14	13	6	
9	14	6	
11	19	7	
6	9	9	
12	13	7	
15	16	10	
10	5	11	
8	9	10	
12	9	4	
6	12	7	
13	8	5	
13	17	7	
9	13	6	
9	18	6	
13	9	4	
13	13	10	
7	12	6	
10	13	8	
13	15	11	
10	9	5	
12	15	13	
12	15	11	
14	8	9	
13	13	4	
11	10	8	
15	13	9	
18	14	5	
13	10	9	
15	13	15	
12	11	15	
12	13	14	
14	9	11	
13	17	4	
9	9	10	
10	9	6	
5	15	17	
9	15	4	
17	15	23	
11	12	6	
12	7	8	
7	11	9	
13	10	6	
4	5	8	
10	9	9	
11	8	4	
15	8	9	
19	11	16	
15	21	7	
6	15	7	
13	11	4	
10	11	5	
10	14	15	
7	11	10	
10	6	10	
11	13	9	
8	9	12	
9	5	5	
8	7	7	
11	14	8	
11	10	13	
9	8	2	
13	17	12	
10	20	11	
7	9	12	
12	9	9	
9	14	11	
18	6	8	
9	13	8	
10	14	4	
11	13	3	
12	8	8	
12	19	13	
19	10	10	
10	18	10	
12	13	7	
10	13	8	
13	11	6	
8	12	8	
19	12	11	
13	9	11	
11	6	10	
5	5	7	
5	11	8	
13	6	10	
13	12	10	
12	10	6	
12	11	10	
10	9	8	
14	11	10	
10	11	5	
10	13	4	
10	15	11	
9	9	14	
13	10	8	
11	13	9	
8	13	7	
9	11	7	
8	12	7	
8	8	9	
13	11	4	
14	11	7	
9	12	6	
5	12	8	
13	14	4	
12	10	9	
14	10	11	
14	9	11	
7	11	9	
6	11	8	
15	14	7	
14	10	5	
17	10	6	
18	10	12	
12	10	5	
8	8	7	
14	10	5	
13	11	5	
6	11	1	
12	7	10	
10	10	7	
16	12	5	
8	15	12	
8	7	11	
7	11	10	
10	7	11	
13	10	8	
15	8	7	
16	10	10	
13	9	11	
16	12	6	
12	9	6	
9	10	14	
10	12	5	
7	11	10	
11	13	10	
13	8	5	
14	10	9	
14	20	3	
15	10	10	
10	11	7	
10	5	9	
12	10	8	
12	12	5	
4	13	6	
7	14	2	
11	17	11	
10	5	7	
12	6	9	
10	10	10	
6	14	11	
11	12	11	
12	14	9	
12	15	10	
6	17	7	
13	7	9	
14	10	11	
11	4	10	
19	9	3	
10	10	6	
14	12	11	
15	6	7	
7	9	8	
15	7	8	
13	9	10	
11	12	9	
11	12	9	
14	12	8	
11	4	12	
10	13	6	
9	9	9	
12	13	12	
15	7	7	
13	16	8	
8	8	9	
7	12	5	
14	7	15	
21	16	7	
8	14	12	
10	7	8	
12	5	11	
3	7	9	
20	11	15	
11	12	13	
10	16	10	
8	11	7	
12	8	8	
19	15	13	
9	8	5	
10	13	4	
13	7	9	
9	17	8	
14	7	6	
8	10	3	
7	14	9	
8	11	11	
8	11	10	
11	8	9	
12	7	12	
5	11	5	
13	3	8	
8	13	7	
10	9	4	
12	9	5	
10	16	14	
11	17	9	
17	12	7	
15	9	7	
9	12	10	
10	11	7	
15	11	7	
6	9	11	
8	10	10	
8	11	7	
11	9	8	
8	12	8	
10	13	4	
13	12	8	
13	14	11	
12	18	8	
6	6	7	
15	13	4	
9	15	12	
8	7	4	
9	8	8	
13	7	9	
13	7	8	
9	8	3	
5	11	13	
12	16	12	
8	7	6	
10	13	3	
7	13	10	
10	13	8	
8	10	6	
11	14	9	
11	10	10	
11	9	6	
13	7	10	
7	11	9	
7	13	4	
8	7	6	
9	13	7	
16	5	10	
9	11	5	
14	3	11	
10	13	10	
10	12	6	
8	10	16	
11	11	7	
9	8	9	
12	11	6	
14	10	6	
18	14	9	
13	11	7	
10	9	8	
8	5	12	
11	19	3	
12	11	9	
10	11	10	
7	7	8	
14	11	7	
6	11	7	
12	17	9	
8	8	7	
7	4	6	
2	10	4	
4	13	10	
13	11	8	
12	11	3	
12	11	13	
11	8	10	
6	10	7	
11	12	6	
11	9	3	
13	10	6	
13	8	6	
7	11	5	
12	5	5	
8	11	3	
6	9	8	
9	10	6	
9	8	5	
4	11	9	
12	5	4	
11	11	5	
10	8	6	
8	13	6	
9	14	6	
11	7	10	
9	12	11	
9	5	4	
7	5	7	
9	8	4	
10	16	13	
8	14	7	
8	11	7	
16	10	16	
11	8	6	
12	5	6	
8	10	8	
12	8	6	
5	11	5	
6	7	8	
11	17	6	
12	8	6	
9	15	10	
11	14	8	
7	9	7	
9	3	7	
4	10	4	
10	9	5	
3	10	8	
10	6	5	
12	12	10	
12	10	12	
13	11	7	
11	8	8	
8	10	4	
7	12	6	
7	6	6	
6	5	8	
15	12	13	
7	5	8	
10	7	6	
8	13	9	
5	10	6	
14	8	5	
9	13	9	
9	13	3	
5	5	7	
7	17	9	
15	13	8	
9	10	8	
8	12	6	
9	10	11	
9	7	6	
10	13	10	
8	10	6	
17	18	3	
5	9	10	
5	7	8	
13	7	8	
7	16	7	
9	10	10	
4	8	6	
7	11	10	
9	10	5	
8	10	5	
7	12	8	
8	11	6	
14	20	12	
13	10	7	
9	13	7	
9	14	10	
8	10	7	
5	14	6	
7	14	9	
10	11	6	
8	9	4	
3	9	6	
11	7	6	
12	12	8	
11	9	12	
13	7	6	
9	11	4	
10	10	9	
12	13	9	
8	10	4	
11	6	9	
11	14	6	
6	7	4	
6	11	9	
5	10	6	
7	5	7	
12	9	7	
10	10	9	
9	8	8	
6	12	6	
8	15	4	
13	9	4	
10	8	8	
6	13	9	
9	7	6	
8	10	6	
8	12	5	
10	10	8	
12	10	9	
9	16	6	
6	5	11	
11	14	8	
9	13	8	
8	11	8	
15	8	6	
15	14	7	
9	12	9	
3	10	9	
9	9	9	
7	11	8	
8	9	4	
10	8	12	
9	8	5	
12	15	6	
5	5	5	
5	9	8	
13	14	6	
12	4	8	
10	6	10	
12	9	8	
7	13	3	
9	11	5	
11	7	4	
8	9	10	
10	11	10	
10	12	10	
7	12	6	
11	5	5	
11	8	6	
16	7	6	
5	13	10	
14	4	9	
7	10	5	
14	15	6	
5	6	12	
8	13	12	
9	12	6	
7	6	7	
9	12	11	
9	5	3	
17	5	9	
8	7	9	
11	10	15	
11	9	5	
9	6	6	
6	9	8	
7	10	6	
7	9	11	
13	8	4	
13	15	7	
13	13	6	
9	10	8	
10	10	9	
5	4	5	
7	7	7	
7	15	6	
7	10	7	
11	4	9	
11	10	9	
10	10	5	
5	13	9	
2	11	5	
7	9	9	
5	12	5	
8	11	8	
9	10	12	
12	11	5	
5	7	10	
2	12	7	
14	8	4	
11	8	8	
8	8	11	
11	5	8	
4	7	4	
10	6	5	
10	8	6	
8	9	5	
15	6	8	
11	12	7	
6	9	4	
8	13	18	
4	11	6	
10	10	2	
10	6	14	
6	9	5	
14	5	3	
10	3	8	
11	7	11	
7	12	11	
7	8	8	
6	6	4	
2	9	10	
7	9	5	
10	10	8	
12	11	13	
8	10	9	
8	4	11	
6	9	4	
9	11	7	
11	5	7	
8	12	6	
4	8	9	
6	14	5	
10	0	9	
7	13	7	
8	9	5	
9	5	6	
7	5	6	
9	4	10	
4	6	5	
4	8	11	
8	8	3	
6	9	6	
9	11	6	
8	11	5	
14	15	9	
3	9	11	
5	10	4	
4	13	4	
11	8	9	
7	6	9	
7	7	10	
8	11	11	
4	4	5	
12	6	6	
14	7	9	
10	16	3	
7	8	8	
7	9	10	
10	13	7	
13	9	3	
11	9	10	
10	4	7	
6	6	7	
6	9	9	
9	5	7	
16	11	13	
7	11	4	
7	8	14	
9	6	8	
9	6	6	
6	9	4	
4	9	5	
9	6	8	
6	10	8	
10	5	8	
9	8	8	
6	10	7	
6	10	9	
5	7	7	
7	8	4	
5	16	8	
8	8	10	
13	11	11	
9	9	5	
9	6	2	
15	14	6	
10	8	4	
13	9	7	
7	14	2	
14	12	5	
3	10	12	
14	3	6	
11	7	4	
8	5	13	
3	8	9	
7	12	3	
9	4	10	
10	5	7	
6	8	6	
6	6	7	
5	8	7	
12	9	8	
6	7	8	
5	5	6	
7	10	5	
10	12	9	
10	10	8	
4	7	2	
11	11	8	
7	6	7	
10	7	7	
6	6	7	
2	6	5	
12	11	3	
7	10	10	
12	9	5	
7	5	7	
8	12	8	
5	4	12	
14	11	7	
8	6	7	
10	7	10	
7	5	8	
5	6	10	
9	9	6	
8	6	5	
12	10	8	
9	9	8	
4	5	10	
9	6	8	
11	6	6	
11	13	4	
6	10	4	
7	11	4	
3	16	6	
10	10	9	
9	7	6	
4	5	8	
4	7	2	
9	8	6	
9	5	7	
5	10	7	
10	10	8	
4	19	4	
4	10	8	
5	11	9	
10	5	10	
10	11	2	
5	12	9	
4	5	9	
12	10	4	
7	12	9	
5	5	2	
5	6	11	
5	11	6	
5	8	10	
11	11	9	
5	9	10	
7	11	7	
7	9	5	
9	9	4	
7	8	11	
6	7	6	
10	11	2	
6	11	12	
13	5	8	
10	9	8	
11	9	7	
9	5	8	
9	6	11	
11	5	3	
8	9	7	
9	7	4	
7	4	11	
9	13	6	
10	8	9	
9	6	5	
4	10	7	
12	12	7	
6	9	7	
10	10	6	
13	10	9	
11	8	11	
6	7	4	
7	10	8	
4	13	4	
8	8	11	
7	6	4	
6	8	9	
7	10	7	
13	10	6	
7	6	8	
9	9	7	
7	9	9	
5	8	10	
14	2	5	
11	7	7	
5	5	7	
8	4	8	
10	18	5	
10	13	8	
10	5	7	
6	10	9	
10	14	4	
6	10	3	
12	8	8	
9	9	8	
1	8	6	
6	8	8	
10	16	5	
7	7	9	
5	9	6	
7	7	5	
6	6	4	
5	13	7	
7	3	7	
7	9	4	
10	9	6	
2	5	5	
9	13	10	
7	8	3	
6	4	10	
7	9	8	
10	6	5	
9	4	10	
9	8	6	
8	7	4	
10	11	4	
9	5	6	
9	7	6	
8	8	4	
8	6	7	
9	7	3	
6	8	10	
7	9	7	
5	6	7	
15	12	5	
6	8	8	
8	10	8	
5	8	4	
9	13	12	
11	11	6	
9	8	9	
11	10	10	
10	13	8	
8	14	10	
7	6	6	
4	8	10	
5	10	4	
7	5	9	
13	9	7	
12	10	10	
10	8	8	
6	12	8	
7	9	11	
13	8	6	
11	4	5	
6	11	10	
8	8	5	
9	11	5	
6	11	6	
12	13	8	
11	9	2	
6	12	8	
9	8	2	
10	5	8	
8	9	4	
4	10	8	
7	9	8	
5	13	3	
4	13	12	
8	10	9	
10	6	8	
8	10	4	
12	8	8	
6	10	5	
10	10	5	
11	15	4	
10	8	9	
12	6	5	
9	13	9	
11	9	8	
3	9	5	
8	7	3	
7	5	5	
8	6	5	
6	6	10	
8	9	9	
7	7	5	
6	7	9	
5	8	7	
9	13	7	
8	7	6	
11	9	9	
8	5	5	
9	13	8	
6	6	7	
7	13	6	
6	14	9	
13	11	5	
9	8	8	
4	9	6	
8	10	7	
6	10	8	
8	9	6	
9	8	6	
2	7	11	
7	12	11	
11	9	10	
9	11	10	
7	8	3	
14	4	5	
7	11	4	
8	7	5	
9	9	2	
4	8	7	
14	7	6	
8	7	11	
10	7	11	
3	9	7	
7	13	7	
4	7	7	
5	6	2	
13	11	7	
9	8	7	
7	15	6	
4	9	8	
5	3	11	
4	6	7	
9	11	3	
6	6	4	
5	11	5	
7	11	3	
10	8	5	
9	12	9	
6	9	6	
4	5	6	
14	7	7	
6	6	6	
13	3	1	
8	7	4	
9	8	6	
14	9	9	
10	9	3	
8	9	9	
9	5	5	
8	7	9	
7	10	4	
8	12	3	
6	11	9	
5	10	5	
7	9	6	
3	5	10	
4	9	4	
7	8	9	
7	14	5	
8	5	5	
6	8	6	
7	6	4	
9	5	6	
7	9	6	
4	7	7	
9	10	6	
5	7	5	
8	9	7	
7	6	4	
5	12	3	
8	12	3	
2	10	7	
11	5	4	
5	9	10	
6	7	4	
3	9	8	
6	9	3	
9	6	8	
8	7	8	
6	6	8	
10	5	10	
7	6	3	
10	10	8	
3	8	7	
7	5	7	
2	7	5	
7	6	8	
4	9	6	
4	6	3	
1	7	6	
4	11	14	
8	6	8	
9	4	5	
14	9	6	
7	14	4	
7	6	9	
8	9	5	
6	7	5	
4	11	5	
6	7	4	
12	7	4	
9	12	4	
4	5	12	
2	7	5	
8	6	8	
4	14	7	
8	11	5	
4	8	6	
4	9	10	
11	9	8	
7	7	3	
7	8	10	
5	6	5	
4	9	4	
10	6	2	
3	9	11	
8	8	5	
6	10	6	
12	4	7	
6	7	6	
6	11	4	
8	9	4	
6	6	5	
3	6	8	
2	9	7	
2	5	7	
10	7	2	
6	9	8	
8	7	7	
9	4	5	
6	5	2	
3	11	9	
5	8	4	
8	9	6	
9	7	5	
3	9	8	
8	8	11	
5	6	8	
8	5	7	
7	5	14	
7	13	7	
8	10	4	
6	9	6	
9	8	6	
6	8	4	
14	9	6	
7	11	8	
4	9	5	
5	8	12	
6	5	8	
7	4	5	
11	10	7	
5	11	6	
9	7	4	
8	8	6	
9	7	7	
3	9	7	
7	6	12	
14	8	8	
8	7	5	
8	10	7	
8	10	8	
11	5	3	
3	11	9	
6	6	10	
5	6	6	
8	8	3	
8	12	4	
6	9	8	
4	11	11	
8	4	6	
8	7	4	
7	8	5	
7	7	8	
4	5	5	
8	4	7	
10	7	5	
4	11	7	
7	9	10	
11	11	0	
10	9	6	
6	12	6	
4	12	8	
10	16	3	
8	7	7	
13	7	6	
4	12	2	
7	6	6	
5	5	13	
7	12	9	
5	7	8	
9	7	6	
5	6	8	
7	6	6	
2	9	8	
9	6	6	
3	7	11	
3	10	6	
4	6	7	
10	7	6	
9	4	6	
5	7	4	
9	9	5	
4	8	4	
6	5	8	
10	5	4	
10	10	5	
4	7	2	
2	8	8	
5	8	8	
7	3	8	
6	5	5	
11	6	6	
11	5	1	
6	8	2	
8	6	8	
10	6	10	
5	8	2	
11	5	4	
5	7	9	
10	18	3	
9	10	7	
7	11	9	
10	12	6	
7	6	4	
6	6	3	
11	10	2	
7	5	5	
8	4	5	
10	7	4	
7	4	10	
10	11	8	
8	10	5	
13	5	7	
0	7	7	
8	9	3	
7	2	8	
13	1	3	
8	6	6	
4	7	7	
11	8	3	
3	12	4	
8	8	8	
12	10	4	
8	3	6	
10	12	10	
6	9	4	
3	9	4	
3	9	7	
9	9	6	
8	5	5	
7	6	9	
4	10	10	
6	10	6	
6	8	2	
7	6	5	
6	7	6	
9	5	4	
4	15	5	
4	3	6	
7	4	8	
4	8	4	
5	5	4	
6	14	12	
11	7	4	
4	5	9	
7	8	4	
5	7	4	
10	5	4	
15	11	6	
6	11	5	
7	11	4	
5	4	14	
9	6	9	
12	14	8	
5	4	6	
8	2	7	
4	5	7	
5	5	1	
3	4	6	
5	6	10	
8	10	8	
10	7	7	
8	10	5	
5	10	5	
7	11	8	
9	7	6	
12	10	5	
7	10	7	
13	11	14	
9	11	8	
2	8	8	
12	8	9	
9	9	9	
8	5	5	
4	8	5	
5	9	9	
7	7	6	
5	5	7	
2	7	3	
7	4	5	
7	7	10	
11	9	9	
9	5	6	
7	9	7	
7	5	2	
9	9	5	
7	6	7	
7	5	4	
6	3	11	
4	10	7	
14	12	9	
3	4	5	
6	7	5	
4	5	3	
3	8	7	
4	10	3	
4	8	6	
8	9	12	
7	9	6	
4	4	8	
7	11	5	
5	9	10	
7	6	6	
2	9	7	
4	5	6	
2	8	5	
8	4	5	
8	6	2	
2	9	5	
4	4	10	
6	5	6	
9	4	6	
5	11	3	
7	10	5	
9	11	6	
9	11	9	
3	10	5	
11	5	7	
9	5	8	
6	9	8	
5	5	6	
4	11	3	
11	4	7	
7	3	1	
5	8	7	
7	4	3	
4	10	2	
13	6	9	
4	5	8	
10	8	7	
4	7	7	
5	5	10	
6	7	5	
7	6	2	
6	9	3	
3	11	3	
9	5	1	
8	6	8	
8	8	6	
5	5	4	
6	9	4	
5	9	7	
8	8	5	
8	5	8	
6	11	6	
6	3	6	
7	6	9	
6	8	9	
5	9	7	
5	8	3	
3	6	3	
9	7	5	
4	9	7	
8	12	3	
5	3	2	
6	8	7	
6	3	5	
7	7	4	
6	5	3	
7	8	4	
12	7	9	
6	9	6	
5	4	5	
9	4	6	
5	3	5	
4	4	3	
8	7	8	
10	1	12	
6	8	7	
4	8	6	
7	5	8	
6	11	9	
9	4	1	
7	5	3	
8	10	4	
8	9	3	
5	10	5	
6	11	2	
9	5	7	
6	4	7	
8	5	3	
5	7	8	
7	11	8	
3	9	8	
12	0	4	
6	5	6	
7	6	10	
7	11	6	
5	8	3	
8	4	6	
3	6	8	
8	10	3	
1	11	7	
3	6	6	
10	9	7	
9	9	7	
5	5	6	
5	6	5	
3	10	6	
5	5	5	
7	6	8	
3	5	6	
3	9	7	
4	8	6	
6	5	4	
10	13	1	
6	8	4	
4	3	5	
5	8	7	
7	6	6	
5	9	9	
5	7	6	
2	2	7	
7	6	7	
9	8	2	
8	4	7	
4	7	2	
11	2	9	
5	12	6	
5	3	4	
3	6	4	
5	8	2	
8	4	8	
4	7	9	
5	7	13	
9	8	7	
6	11	3	
5	3	7	
7	4	5	
10	6	5	
4	6	5	
8	10	3	
10	10	6	
6	7	5	
5	5	0	
6	4	6	
6	5	8	
6	4	5	
8	9	6	
2	4	12	
4	4	7	
7	10	6	
4	7	8	
7	2	11	
2	9	4	
4	4	7	
4	6	7	
9	5	5	
5	8	3	
8	6	4	
6	4	6	
6	10	7	
6	10	4	
4	9	8	
6	10	1	
12	5	7	
8	8	5	
5	5	3	
10	5	2	
7	9	10	
3	6	7	
8	9	9	
9	11	2	
3	7	5	
7	8	8	
9	6	6	
10	9	3	
9	7	7	
2	5	5	
6	11	5	
10	6	8	
6	6	9	
6	2	6	
6	9	3	
9	11	14	
2	8	5	
5	5	7	
6	8	4	
4	10	8	
9	6	6	
6	3	6	
3	7	7	
5	6	3	
4	3	3	
3	4	10	
9	5	4	
4	10	5	
5	7	8	
7	5	7	
5	9	3	
9	6	6	
9	7	3	
6	8	4	
6	4	7	
7	8	7	
3	12	7	
9	5	4	
4	6	3	
3	5	11	
6	9	4	
3	9	4	
7	3	6	
5	7	4	
7	8	3	
4	8	7	
3	6	7	
5	3	5	
6	5	5	
7	5	5	
4	6	7	
7	7	8	
7	7	3	
6	7	6	
11	9	3	
6	5	7	
5	8	7	
4	7	6	
4	13	3	
5	9	5	
6	6	5	
10	1	6	
3	9	7	
2	11	8	
13	9	4	
1	2	8	
6	10	6	
6	4	6	
5	4	5	
8	6	6	
6	5	8	
2	4	0	
6	4	3	
5	12	5	
3	4	7	
3	4	3	
1	1	4	
4	11	9	
4	7	2	
2	8	5	
5	7	8	
8	6	2	
5	7	6	
2	4	3	
10	3	3	
4	8	7	
7	7	9	
5	5	6	
10	5	3	
9	3	5	
5	7	5	
5	10	4	
5	10	6	
6	6	3	
4	8	5	
5	6	9	
6	4	8	
4	6	8	
2	11	4	
10	6	7	
3	7	6	
5	7	9	
5	11	8	
5	3	8	
6	8	2	
7	7	8	
6	8	6	
4	9	7	
6	9	7	
6	7	4	
7	10	7	
8	2	8	
3	8	8	
6	10	4	
6	6	4	
9	5	3	
3	10	6	
6	6	6	
11	3	3	
4	4	3	
5	5	6	
6	5	9	
5	4	12	
3	8	2	
5	5	6	
1	9	11	
6	9	4	
5	8	4	
3	2	7	
10	7	3	
2	10	5	
6	4	2	
5	6	5	
4	8	3	
8	9	5	
7	9	5	
2	2	6	
4	4	2	
4	4	7	
5	7	5	
4	4	4	
6	7	4	
7	4	5	
6	12	9	
7	8	6	
4	8	7	
3	9	8	
4	9	2	
6	7	11	
9	8	5	
6	7	5	
6	9	2	
7	4	4	
5	3	5	
2	5	5	
7	12	13	
8	7	5	
7	6	6	
4	4	10	
8	4	4	
5	6	3	
2	3	5	
5	3	5	
4	9	4	
7	10	3	
6	8	7	
9	5	3	
1	3	4	
4	6	1	
6	2	1	
5	7	4	
6	6	4	
6	4	4	
3	7	8	
8	9	8	
3	3	9	
2	6	3	
7	4	6	
7	5	3	
6	3	7	
6	7	7	
5	9	4	
6	4	6	
8	6	2	
5	5	6	
6	1	4	
6	6	3	
7	8	4	
9	4	8	
5	4	5	
7	8	4	
2	5	6	
5	12	3	
5	7	10	
5	6	4	
5	8	0	
2	7	3	
3	6	6	
3	5	10	
6	6	9	
9	6	4	
5	6	2	
3	4	6	
3	4	9	
6	10	6	
5	7	4	
6	4	6	
10	4	2	
2	7	7	
6	9	2	
6	5	6	
3	5	5	
4	22	7	
1	7	11	
3	5	6	
8	9	8	
9	7	3	
4	4	5	
3	5	4	
4	6	8	
4	8	2	
6	9	4	
3	4	3	
3	3	4	
11	5	4	
5	7	12	
5	6	6	
4	3	2	
7	8	2	
3	2	7	
8	9	2	
4	9	2	
5	9	6	
5	2	5	
7	6	2	
9	6	5	
4	7	4	
5	11	7	
5	4	5	
0	5	10	
2	11	4	
3	4	3	
6	3	4	
7	8	5	
3	9	5	
4	4	8	
7	10	7	
3	3	7	
9	5	8	
9	4	7	
8	7	6	
5	7	6	
12	7	3	
7	7	4	
5	7	6	
2	7	7	
9	7	12	
6	6	6	
8	5	3	
3	1	4	
1	7	3	
6	9	5	
4	7	3	
4	8	3	
3	6	7	
7	3	3	
8	3	8	
3	10	9	
5	5	7	
4	9	4	
3	3	3	
7	10	6	
4	9	6	
6	7	6	
5	6	4	
7	4	7	
4	8	7	
1	15	7	
10	3	7	
6	7	4	
4	5	3	
8	8	9	
3	4	3	
3	5	4	
5	3	8	
7	7	2	
9	3	5	
5	8	6	
4	8	3	
3	8	3	
7	3	4	
4	7	2	
5	5	8	
8	8	5	
4	2	4	
6	7	5	
3	4	8	
8	4	5	
0	4	2	
7	1	8	
7	8	5	
6	5	2	
5	4	8	
6	5	10	
8	6	8	
10	5	3	
8	9	2	
3	1	3	
5	5	11	
5	4	9	
9	6	4	
5	7	4	
4	4	6	
5	12	6	
6	6	4	
9	6	9	
2	7	14	
5	3	7	
2	8	8	
3	7	4	
7	5	8	
6	5	4	
9	5	7	
4	5	5	
6	5	4	
8	9	4	
4	5	3	
4	9	3	
5	5	4	
3	12	4	
7	5	4	
6	5	6	
5	7	4	
3	4	4	
5	3	8	
8	7	2	
8	5	4	
3	10	5	
4	7	5	
5	5	2	
3	9	0	
5	3	2	
3	2	6	
4	5	5	
10	5	3	
3	5	2	
4	2	6	
3	12	7	
4	6	8	
5	4	3	
4	2	4	
6	6	3	
5	11	8	
6	7	4	
6	5	7	
4	2	5	
7	7	8	
3	5	7	
3	6	4	
4	6	10	
5	11	4	
4	8	4	
2	4	4	
6	5	10	
7	9	2	
5	6	3	
8	6	7	
5	7	6	
5	4	5	
4	4	6	
4	1	7	
4	9	4	
3	2	10	
1	7	2	
7	5	5	
6	3	3	
6	5	10	
3	6	8	
1	3	7	
2	3	2	
3	8	6	
4	5	4	
6	8	6	
7	8	9	
5	4	6	
1	6	5	
4	6	4	
3	4	7	
6	6	8	
7	13	4	
5	9	7	
4	11	6	
7	5	6	
6	9	7	
2	5	2	
6	9	2	
1	6	9	
4	5	8	
7	5	6	
3	5	8	
6	8	8	
4	7	5	
0	10	2	
4	6	1	
5	7	6	
9	7	9	
5	5	3	
7	7	3	
2	7	7	
2	3	5	
5	5	4	
5	6	7	
4	7	6	
8	8	10	
5	5	8	
9	5	7	
8	6	4	
3	3	8	
5	8	5	
6	6	3	
2	4	5	
5	7	3	
6	5	5	
4	3	3	
3	9	2	
5	1	3	
6	6	5	
12	4	6	
1	9	5	
3	8	3	
6	10	4	
4	5	5	
5	10	4	
5	5	6	
0	5	5	
5	6	6	
5	7	4	
3	5	3	
6	9	6	
7	7	4	
6	6	3	
8	5	5	
4	5	3	
7	7	2	
7	0	4	
3	5	5	
3	5	7	
3	5	5	
2	10	5	
4	2	6	
7	4	7	
5	2	4	
3	8	3	
6	8	3	
1	3	6	
5	1	5	
3	6	2	
5	4	4	
5	4	3	
7	6	4	
6	6	9	
8	7	6	
3	7	5	
9	5	8	
6	7	3	
4	6	1	
6	3	6	
4	6	3	
6	10	5	
2	0	9	
5	7	1	
8	4	4	
6	10	5	
5	7	5	
8	9	6	
5	4	7	
2	3	5	
6	3	1	
3	6	4	
7	5	4	
7	3	6	
5	7	3	
3	6	4	
4	6	2	
4	6	6	
2	4	6	
4	4	5	
3	9	8	
8	8	3	
6	8	5	
6	7	9	
4	3	7	
2	7	2	
2	3	6	
6	7	5	
5	3	4	
4	1	3	
4	1	2	
8	5	4	
4	3	6	
3	3	8	
6	6	5	
11	3	3	
6	2	7	
3	4	7	
7	7	1	
2	5	4	
3	5	3	
1	4	2	
2	3	4	
5	5	2	
8	4	10	
7	8	8	
6	5	4	
2	5	5	
2	9	3	
4	5	1	
3	7	5	
6	11	6	
3	8	10	
5	6	7	
7	2	10	
4	6	5	
0	5	3	
3	3	4	
5	6	2	
4	5	8	
3	6	4	
7	10	6	
3	3	2	
4	7	7	
2	6	6	
4	7	9	
4	9	4	
3	3	2	
5	5	7	
5	7	6	
2	3	5	
4	6	5	
4	6	4	
5	7	3	
5	10	4	
4	7	3	
4	3	4	
5	5	11	
5	4	4	
5	8	4	
4	8	5	
4	5	2	
2	3	5	
6	5	2	
9	0	3	
4	8	1	
4	4	12	
0	2	5	
2	10	4	
2	4	5	
4	5	3	
6	7	3	
7	7	4	
3	10	8	
4	8	2	
8	6	1	
0	8	3	
5	3	7	
7	6	7	
3	6	1	
5	2	8	
5	1	7	
2	4	9	
3	1	5	
5	9	2	
2	6	7	
3	9	1	
5	4	6	
5	4	1	
6	3	2	
7	7	11	
4	4	8	
9	4	8	
1	4	4	
2	4	9	
5	4	4	
3	5	4	
4	6	9	
2	7	3	
8	1	2	
5	9	2	
2	8	5	
4	6	5	
4	6	6	
4	7	7	
3	1	6	
3	4	6	
6	8	8	
4	8	5	
