#PicoHarp 300  Histogram Data			04/24/2023 03:02:16 PM
#channels per curve
19141
#display curve no.
0	1	2	3	4	
#memory block no.
0	1	2	3	4	
#ns/channel
0.5120	0.5120	0.5120	0.5120	0.5120	
#counts
0	0	4	2	4	
0	1	2	5	8	
0	0	2	5	10	
0	2	2	4	5	
0	1	3	1	9	
0	0	0	3	9	
0	0	1	4	6	
0	1	3	5	11	
0	0	2	0	6	
1	0	4	2	4	
1	1	1	9	6	
1	0	5	4	5	
0	1	3	4	6	
0	0	1	4	14	
0	1	3	5	7	
0	0	0	5	3	
0	1	3	6	8	
0	0	2	0	4	
1	0	1	2	5	
1	0	1	6	7	
0	0	4	4	6	
1	0	1	3	5	
0	0	4	2	11	
2	0	4	2	11	
0	0	2	3	8	
0	0	1	3	9	
0	1	4	1	4	
1	1	1	4	7	
1	0	3	8	7	
1	0	2	2	9	
0	1	3	4	12	
1	1	5	2	2	
0	0	1	3	6	
1	1	4	8	5	
0	1	3	2	7	
1	1	1	4	7	
0	1	1	6	4	
0	1	2	7	9	
0	3	1	5	11	
1	0	1	4	6	
0	1	2	3	7	
0	0	3	1	10	
0	1	1	5	4	
0	0	5	2	7	
2	1	4	5	9	
1	0	3	1	9	
0	2	3	1	10	
0	1	0	3	9	
0	0	2	4	11	
0	0	1	2	4	
1	0	5	3	7	
0	1	3	1	8	
1	1	1	5	7	
1	1	2	5	9	
2	0	3	3	13	
1	2	7	12	15	
7	5	8	9	15	
9	5	12	21	16	
13	15	16	14	20	
28	14	33	30	35	
38	29	47	45	45	
39	60	87	100	100	
65	90	78	89	86	
80	82	80	72	91	
80	87	93	87	78	
73	72	84	69	70	
84	74	85	86	65	
76	79	98	82	65	
88	84	89	91	59	
100	100	89	75	56	
96	91	99	76	61	
90	100	82	80	58	
93	97	79	87	51	
100	91	91	90	53	
87	72	73	61	53	
70	81	85	80	39	
85	94	87	67	52	
86	72	85	71	48	
78	82	85	68	65	
88	81	81	66	41	
83	82	78	50	54	
91	76	86	76	40	
73	78	77	69	54	
72	75	75	60	54	
76	77	85	61	57	
79	75	73	68	56	
78	74	99	53	45	
73	84	92	58	43	
91	60	90	66	40	
66	87	72	72	44	
83	67	71	57	38	
92	68	74	79	52	
74	56	67	61	53	
71	72	81	67	45	
70	74	81	72	52	
99	68	77	64	45	
65	65	72	48	67	
71	61	81	58	64	
80	67	73	53	44	
78	75	71	61	53	
75	68	86	60	51	
65	64	79	62	34	
82	63	75	65	38	
69	81	60	60	37	
71	87	70	56	47	
67	63	88	67	47	
66	62	100	66	54	
79	81	76	60	32	
77	79	91	71	39	
73	68	76	64	40	
58	55	74	61	40	
71	69	89	47	38	
81	57	94	67	52	
87	71	78	81	48	
77	63	62	66	47	
78	76	87	51	59	
72	70	66	55	47	
47	65	66	71	55	
77	78	77	63	55	
75	65	79	44	41	
75	58	73	56	53	
57	73	78	58	44	
59	78	65	63	31	
65	73	65	70	59	
73	69	67	63	45	
66	72	99	49	46	
70	51	74	53	51	
57	61	52	58	51	
83	80	65	72	47	
74	65	62	57	48	
76	52	83	72	38	
69	71	73	71	36	
65	83	80	53	48	
56	68	63	53	37	
54	64	74	56	35	
75	60	91	52	45	
63	76	67	56	59	
52	57	82	55	59	
70	72	76	53	50	
80	71	81	67	42	
70	74	73	62	46	
59	75	74	46	38	
61	72	88	79	40	
80	72	69	48	49	
70	67	66	51	30	
82	63	58	50	45	
54	56	78	50	46	
73	69	86	76	36	
70	51	71	73	53	
70	75	82	59	54	
86	62	78	55	41	
75	80	75	55	34	
60	72	75	48	37	
69	81	76	51	25	
71	72	71	56	38	
59	66	72	56	47	
71	60	69	62	64	
72	52	78	59	44	
71	71	70	59	43	
70	63	62	60	22	
63	65	71	77	48	
64	74	77	45	50	
77	65	76	54	50	
73	54	59	47	40	
61	48	64	57	48	
71	80	85	77	53	
55	65	73	68	38	
63	79	78	55	40	
53	52	74	55	31	
57	73	75	54	51	
64	71	62	50	43	
66	70	66	70	49	
66	69	71	51	45	
60	64	81	58	38	
59	57	67	59	40	
65	66	73	70	40	
66	57	65	53	43	
59	56	66	59	36	
62	65	69	64	57	
66	56	58	47	47	
74	52	77	56	46	
78	48	71	52	36	
47	67	72	63	46	
66	52	74	65	39	
69	62	73	54	47	
58	59	81	64	47	
51	67	63	56	47	
55	52	78	55	50	
51	63	77	66	40	
56	63	67	46	37	
56	51	78	60	51	
77	58	63	60	56	
64	59	70	55	48	
58	70	77	62	34	
70	60	72	56	44	
64	59	73	58	59	
60	47	56	35	47	
55	60	63	67	46	
58	61	78	65	50	
61	59	81	57	39	
51	57	75	54	42	
60	55	73	66	42	
59	66	66	61	45	
71	54	57	58	47	
60	58	88	52	44	
76	63	64	68	43	
59	49	62	73	26	
51	55	72	57	45	
64	62	58	50	45	
67	67	75	47	42	
48	60	64	60	41	
60	66	72	42	40	
66	51	82	67	45	
73	64	77	59	44	
65	63	69	65	41	
42	67	68	63	35	
55	50	63	54	39	
39	70	62	63	43	
61	54	66	62	53	
49	65	82	60	44	
59	59	58	50	38	
58	44	61	52	45	
57	54	70	63	43	
64	60	64	57	37	
58	50	74	51	34	
57	47	65	53	39	
49	66	57	47	43	
50	53	67	51	38	
54	62	69	58	50	
42	60	58	63	51	
51	52	82	59	50	
48	53	64	41	56	
60	63	59	46	33	
61	68	59	55	49	
48	50	72	81	55	
67	58	67	64	35	
57	57	54	66	41	
68	48	70	60	37	
34	55	79	50	50	
51	73	68	56	45	
65	49	56	51	38	
61	63	68	45	49	
61	71	66	59	44	
53	62	56	75	36	
57	48	59	53	46	
64	54	75	69	38	
46	41	76	54	49	
51	49	78	54	32	
57	60	73	61	41	
38	50	65	57	39	
47	55	75	61	48	
47	70	67	54	40	
49	54	78	46	32	
52	62	63	50	58	
68	58	60	59	36	
56	67	53	53	37	
52	50	80	59	54	
50	60	70	50	39	
62	48	67	59	35	
43	67	61	63	61	
63	48	70	63	36	
55	55	66	44	40	
61	59	59	52	40	
62	41	56	53	38	
48	59	69	59	36	
59	51	69	45	46	
42	52	65	49	40	
58	61	58	62	41	
44	58	74	59	55	
47	47	63	71	47	
50	63	57	47	39	
58	67	67	44	39	
57	51	63	49	42	
46	42	64	50	30	
54	57	65	51	37	
53	48	67	56	47	
58	59	68	67	38	
70	58	53	49	40	
61	64	77	56	31	
43	59	62	47	40	
57	71	75	45	58	
57	66	71	61	42	
65	63	55	53	31	
43	60	81	56	44	
53	45	54	66	41	
48	58	67	58	50	
53	49	69	48	40	
54	62	55	56	31	
54	58	63	53	28	
46	57	60	61	44	
50	62	67	60	34	
63	59	70	59	36	
59	48	73	54	40	
60	47	60	45	37	
39	57	67	49	43	
49	49	56	59	45	
54	45	80	49	35	
52	53	57	41	36	
58	44	72	74	34	
62	56	62	52	39	
44	44	71	51	38	
55	46	74	57	36	
74	44	57	59	41	
57	48	77	62	45	
60	65	55	53	29	
58	72	66	63	47	
57	68	84	53	45	
59	49	51	62	35	
48	57	71	49	46	
44	68	57	55	46	
43	46	48	30	43	
46	54	61	60	42	
59	51	59	45	50	
34	41	64	54	45	
67	52	51	69	44	
46	52	67	40	36	
48	59	61	58	37	
40	56	60	38	45	
57	48	74	56	41	
50	62	51	53	45	
49	55	71	53	31	
55	58	77	48	44	
51	42	65	51	43	
49	66	67	52	27	
41	68	68	50	34	
59	65	61	66	40	
41	54	62	55	33	
51	43	75	68	40	
64	47	56	52	41	
48	55	65	59	37	
51	59	68	62	54	
55	47	77	57	43	
51	38	53	56	39	
53	58	56	48	33	
49	41	67	49	39	
46	58	62	53	34	
44	49	64	62	46	
40	50	59	48	46	
61	47	74	58	46	
47	48	63	47	46	
37	61	68	57	33	
57	54	80	57	43	
39	47	61	44	41	
47	51	65	50	52	
48	43	61	41	45	
49	62	50	54	41	
53	62	82	60	36	
50	51	59	48	44	
46	50	70	60	40	
49	58	44	53	50	
41	42	51	55	42	
39	57	70	60	41	
43	59	76	51	40	
44	42	58	52	43	
55	35	68	51	35	
37	58	65	59	43	
39	47	47	49	49	
43	45	57	50	55	
41	55	46	54	49	
51	60	60	53	39	
38	39	64	53	41	
42	61	57	59	48	
29	48	64	49	39	
55	43	55	51	37	
38	47	58	55	50	
45	46	73	46	36	
33	45	57	55	53	
52	58	72	55	42	
61	47	60	69	63	
41	55	43	56	41	
45	46	63	50	39	
38	51	66	47	43	
48	51	64	66	51	
45	45	63	54	30	
35	43	59	53	39	
51	61	70	45	50	
30	49	72	46	31	
39	46	68	65	43	
46	55	64	64	42	
35	44	64	43	47	
44	52	70	48	33	
41	66	72	54	42	
51	63	75	38	37	
41	52	57	48	33	
38	54	69	57	48	
50	43	64	51	36	
59	44	52	50	43	
51	46	62	60	32	
33	48	63	57	42	
43	43	64	46	35	
49	58	60	46	51	
36	47	51	54	33	
51	54	69	51	35	
45	58	60	45	30	
56	50	78	49	34	
39	64	65	45	32	
48	63	54	65	49	
50	56	54	54	36	
38	66	77	54	49	
41	40	54	45	39	
46	41	53	45	40	
55	47	42	47	36	
37	52	61	62	40	
39	54	64	57	35	
52	46	65	54	33	
42	53	54	52	48	
36	48	60	50	35	
38	60	51	54	32	
44	48	56	42	35	
40	40	66	45	42	
41	42	58	42	41	
40	39	70	52	44	
39	54	81	45	48	
46	55	59	50	40	
41	38	52	53	34	
51	49	76	39	35	
35	44	63	48	41	
42	54	63	52	34	
37	42	68	46	37	
57	59	58	49	35	
45	60	55	55	44	
56	49	59	55	33	
39	42	74	44	41	
37	58	52	60	42	
45	44	73	43	44	
43	51	67	55	39	
49	41	65	52	32	
39	52	49	41	39	
37	45	55	42	51	
40	49	71	50	49	
37	55	65	49	26	
34	48	59	50	39	
30	40	62	37	48	
34	48	75	53	36	
49	51	66	47	32	
45	57	65	58	42	
37	57	55	46	49	
33	49	47	44	29	
36	35	64	59	32	
31	58	47	59	44	
46	49	61	54	38	
43	46	56	42	37	
35	48	50	54	45	
39	45	73	48	38	
42	52	53	55	30	
35	45	51	52	49	
47	38	67	43	35	
39	43	58	50	40	
44	43	55	60	33	
38	41	77	50	45	
39	47	68	41	36	
53	43	54	56	30	
44	50	60	51	38	
41	47	63	47	31	
42	38	58	55	40	
49	37	50	47	32	
34	44	64	50	43	
49	38	56	63	39	
48	57	61	59	27	
36	44	59	68	22	
42	45	53	57	46	
33	62	49	44	32	
35	51	69	64	29	
45	56	54	46	35	
36	58	65	60	43	
40	38	57	59	41	
41	49	54	53	35	
49	55	69	50	51	
50	33	53	52	39	
45	60	59	55	36	
41	31	58	60	46	
48	48	61	46	40	
36	47	50	54	46	
30	32	51	58	57	
39	58	53	64	35	
41	31	65	63	42	
43	47	51	42	32	
41	44	54	50	39	
49	46	55	66	37	
38	44	57	49	45	
38	37	56	47	42	
47	43	52	47	41	
34	36	71	50	36	
35	40	62	41	40	
37	50	54	37	49	
46	46	52	57	36	
50	51	69	52	34	
37	44	59	35	40	
34	46	56	55	32	
34	35	46	49	44	
41	52	59	48	34	
44	49	63	44	30	
49	38	54	53	40	
42	51	58	45	35	
40	35	56	53	51	
58	51	57	54	44	
42	54	60	55	42	
34	45	50	49	44	
41	50	53	45	26	
30	43	48	47	32	
45	44	63	48	41	
43	47	53	47	44	
35	39	56	58	30	
33	38	51	53	31	
46	40	55	66	46	
31	38	42	51	44	
38	57	51	47	35	
30	40	56	39	41	
33	45	45	56	30	
46	36	61	41	41	
32	48	60	56	56	
24	37	62	51	51	
49	33	51	39	46	
41	47	62	50	32	
38	41	50	45	37	
41	51	55	50	42	
41	42	56	50	38	
54	50	59	49	34	
31	45	50	51	35	
36	46	53	47	31	
45	46	59	48	34	
45	47	62	59	37	
39	60	52	53	47	
32	56	66	54	34	
37	23	50	51	37	
39	42	76	54	38	
33	39	58	54	42	
37	46	66	58	38	
33	53	64	42	36	
23	46	51	43	46	
32	40	48	46	32	
35	38	66	59	42	
40	41	70	31	34	
38	48	63	42	39	
41	56	48	50	40	
44	44	53	52	40	
37	37	54	49	36	
30	38	48	49	37	
41	41	62	51	37	
45	44	54	43	35	
27	39	56	53	38	
35	33	51	50	40	
18	44	50	39	33	
32	42	51	49	40	
34	45	42	50	47	
28	54	46	31	39	
37	33	46	54	28	
48	43	63	51	35	
42	46	50	48	40	
23	39	54	42	46	
31	47	49	42	44	
35	40	58	63	51	
24	38	58	37	35	
38	41	67	53	38	
34	40	51	46	33	
32	30	68	42	43	
43	33	39	50	46	
40	36	46	46	33	
35	46	71	60	35	
36	34	53	53	39	
28	45	70	49	31	
31	41	60	37	36	
44	29	65	54	42	
35	45	42	59	53	
39	37	54	60	45	
31	50	64	54	42	
52	58	59	40	44	
43	43	55	47	38	
37	43	61	48	44	
34	37	68	49	38	
34	41	55	46	45	
26	38	57	43	40	
35	41	61	37	45	
32	32	49	44	40	
34	37	65	50	33	
35	39	55	41	36	
35	38	60	46	32	
39	42	57	57	34	
22	32	53	48	51	
30	43	62	51	43	
42	45	52	43	38	
31	41	64	50	48	
33	43	60	66	34	
40	44	53	55	43	
29	30	56	50	43	
40	34	48	49	41	
36	39	44	59	48	
31	36	41	35	30	
33	38	78	49	46	
44	45	61	47	40	
37	48	54	41	32	
31	37	51	54	51	
32	35	59	55	34	
40	32	54	54	33	
40	30	41	49	31	
40	54	49	46	46	
48	43	65	30	35	
41	40	45	34	36	
30	49	69	45	45	
31	27	65	51	46	
32	40	47	48	39	
39	48	45	59	37	
40	44	54	51	36	
38	50	53	45	42	
29	35	47	52	36	
46	65	69	46	44	
27	37	52	39	40	
39	45	59	49	37	
37	41	46	58	38	
33	29	59	53	35	
17	36	57	44	37	
52	36	61	60	36	
30	30	48	51	35	
39	48	67	56	40	
37	47	60	54	34	
41	44	59	42	34	
39	47	57	50	42	
35	54	60	47	48	
41	38	54	48	38	
32	35	50	47	25	
36	31	55	53	32	
37	38	49	40	37	
29	41	49	43	30	
43	40	51	51	33	
27	45	61	51	36	
33	55	60	35	43	
43	47	51	42	31	
36	35	60	47	37	
36	40	49	54	36	
26	44	68	61	32	
35	45	49	56	35	
38	45	48	53	38	
27	34	59	54	41	
31	65	42	48	41	
39	32	47	45	43	
35	30	67	54	37	
32	42	51	44	35	
39	41	56	43	38	
30	37	55	45	40	
31	34	62	51	31	
42	36	55	43	36	
32	49	46	42	41	
30	42	61	49	47	
39	36	55	46	26	
30	39	45	51	33	
36	26	69	54	25	
26	33	62	41	58	
32	39	58	54	40	
39	37	48	52	40	
35	46	52	47	40	
31	35	57	47	38	
44	41	59	60	30	
31	45	61	47	44	
36	37	41	44	36	
37	44	53	47	31	
39	36	54	48	35	
41	41	53	51	37	
39	24	50	40	44	
24	49	53	57	32	
27	41	47	54	48	
30	47	39	41	38	
36	45	41	52	26	
38	26	48	49	34	
33	29	56	49	41	
34	48	65	61	40	
37	40	47	44	31	
40	36	67	53	45	
33	35	54	36	43	
32	50	51	48	34	
32	41	37	50	30	
26	35	55	51	43	
38	38	49	42	35	
34	39	51	48	35	
40	32	57	48	43	
26	34	58	43	39	
34	60	65	49	40	
27	38	49	51	39	
37	39	65	48	34	
32	34	53	51	35	
42	44	64	41	54	
32	44	53	41	29	
29	33	64	45	31	
40	47	42	49	34	
28	30	72	46	32	
25	42	62	53	42	
30	43	56	43	41	
18	40	50	50	42	
28	45	44	50	45	
40	41	47	57	45	
37	38	57	46	33	
36	46	69	40	33	
27	41	57	57	40	
23	43	61	40	35	
32	34	53	52	34	
34	47	43	42	50	
30	32	50	45	46	
25	49	57	48	40	
32	28	60	41	36	
31	37	54	39	42	
30	41	41	57	40	
26	42	53	46	32	
29	42	69	53	30	
32	44	52	45	43	
35	35	45	46	30	
35	33	48	52	40	
26	35	55	59	36	
29	52	44	54	31	
26	38	63	44	35	
37	40	58	41	35	
38	37	51	45	41	
28	43	53	53	32	
25	38	36	31	39	
26	41	72	51	44	
30	45	52	40	43	
24	32	40	46	34	
31	41	57	62	34	
47	34	48	47	40	
26	38	63	47	43	
26	27	51	44	40	
23	36	56	48	34	
23	39	58	46	34	
37	46	55	47	37	
37	43	64	48	33	
36	38	71	41	32	
33	39	50	37	26	
49	33	52	43	35	
27	40	53	44	41	
25	45	47	51	38	
39	32	44	54	44	
30	31	69	41	35	
38	36	63	37	35	
21	29	53	38	32	
28	45	69	45	47	
35	29	57	50	41	
32	39	42	45	44	
34	40	37	46	33	
22	36	50	44	38	
25	36	62	49	37	
31	38	45	49	45	
31	47	56	56	37	
30	39	46	42	42	
38	32	65	60	36	
24	38	45	34	32	
29	29	62	50	40	
29	44	50	43	29	
29	40	60	49	45	
30	43	46	41	35	
28	36	54	41	44	
29	34	67	47	37	
29	34	53	60	34	
29	30	49	43	30	
36	27	32	51	37	
38	39	56	52	40	
32	36	44	47	37	
25	36	60	42	35	
32	33	50	38	34	
22	29	48	40	40	
32	33	68	38	40	
27	27	56	46	44	
34	29	52	47	29	
18	37	44	47	36	
33	33	57	47	28	
45	28	56	41	38	
33	36	53	55	37	
26	38	46	45	37	
21	37	55	52	30	
24	42	41	44	31	
22	32	46	44	26	
34	35	51	44	30	
30	39	57	47	43	
26	30	45	53	38	
28	34	46	44	38	
27	42	59	52	40	
30	32	52	50	38	
29	44	49	43	44	
30	32	48	58	37	
27	36	50	46	43	
30	34	41	41	43	
26	35	51	52	33	
33	36	52	52	44	
31	28	45	45	23	
24	34	52	45	47	
29	27	45	52	38	
40	45	51	31	42	
37	50	57	51	40	
26	38	60	48	38	
29	38	59	47	42	
31	34	61	31	35	
35	30	54	42	40	
32	35	48	49	46	
33	45	42	42	46	
25	36	48	50	41	
25	34	53	53	45	
28	33	49	62	39	
25	47	51	43	33	
33	27	49	41	47	
30	36	44	47	50	
35	33	54	58	39	
27	28	41	41	46	
28	37	59	52	40	
30	32	52	40	32	
23	23	53	44	29	
42	40	51	51	44	
25	31	70	39	40	
31	35	46	45	32	
25	31	42	43	43	
26	37	59	46	36	
27	33	53	52	30	
35	33	53	47	37	
33	32	54	46	34	
33	40	45	41	36	
30	33	65	45	36	
30	32	56	45	36	
17	31	58	46	29	
32	39	45	32	37	
34	30	42	55	35	
42	39	46	49	27	
35	39	54	53	42	
26	26	39	45	42	
30	39	44	45	32	
28	35	44	33	42	
27	38	66	53	32	
22	43	59	56	36	
35	39	43	47	44	
40	39	45	48	35	
32	45	55	54	41	
25	32	60	45	27	
26	34	42	31	33	
23	39	52	52	40	
24	41	56	44	36	
23	30	41	44	43	
31	31	50	51	29	
18	31	48	44	41	
23	34	49	60	35	
27	41	47	38	35	
28	23	52	46	42	
40	41	46	46	36	
31	31	56	40	39	
27	39	35	46	31	
29	36	47	45	36	
28	30	49	42	35	
24	31	48	42	36	
25	23	52	44	37	
26	35	42	52	40	
28	27	51	42	32	
25	34	46	41	31	
25	20	43	46	43	
31	33	35	44	35	
21	29	44	57	52	
27	35	45	44	26	
35	31	52	39	39	
33	36	28	41	27	
25	36	47	49	38	
35	35	60	40	33	
30	41	43	43	50	
40	41	45	50	29	
25	35	47	58	34	
23	21	49	50	32	
25	34	52	53	46	
31	33	50	39	34	
18	26	42	44	35	
20	38	48	50	34	
36	28	45	45	45	
30	35	43	59	25	
23	32	55	41	46	
19	42	50	53	33	
23	29	47	47	37	
27	37	53	43	46	
26	38	51	37	31	
23	30	35	48	28	
25	32	42	42	50	
25	27	44	53	37	
30	29	50	38	46	
33	37	44	55	30	
21	39	44	33	28	
22	28	49	57	31	
24	39	47	37	35	
21	32	44	73	39	
25	43	54	40	32	
27	35	47	37	28	
24	32	48	38	35	
33	34	43	40	45	
28	33	50	55	35	
29	30	58	37	30	
24	23	46	40	35	
29	35	31	53	41	
28	37	56	47	41	
27	29	53	62	41	
28	31	50	43	37	
24	33	55	48	25	
27	27	50	36	38	
21	40	42	44	28	
40	28	43	43	36	
22	29	39	55	41	
17	27	60	44	44	
28	25	49	39	40	
27	20	50	49	35	
25	35	48	58	33	
17	29	56	52	44	
23	32	44	53	41	
29	26	47	48	31	
26	32	50	53	31	
29	35	46	44	29	
28	31	44	47	31	
32	52	45	40	30	
22	32	49	36	43	
24	25	52	39	40	
23	30	42	50	29	
32	38	50	46	34	
36	39	59	37	36	
34	39	43	47	27	
25	31	45	55	40	
24	43	41	36	33	
39	31	51	38	38	
21	30	45	42	35	
17	32	42	42	26	
28	25	44	32	36	
33	30	43	48	40	
31	34	56	62	27	
23	27	34	29	36	
20	23	45	45	34	
26	28	33	49	34	
21	33	38	41	41	
29	30	46	42	33	
31	31	40	52	28	
24	42	57	35	29	
29	53	43	47	31	
28	36	48	40	25	
25	34	49	45	41	
19	33	61	44	30	
23	25	49	49	45	
28	30	39	54	32	
18	23	55	50	38	
24	37	43	53	34	
25	33	43	57	38	
25	31	43	54	33	
33	31	42	45	37	
25	38	39	47	42	
27	27	43	32	42	
24	32	47	53	34	
29	32	40	36	45	
24	24	47	42	35	
28	29	40	44	44	
22	32	49	61	26	
25	43	36	43	27	
27	37	40	37	38	
28	35	56	37	39	
24	43	43	48	26	
29	26	51	55	31	
30	32	47	45	34	
15	27	50	46	39	
34	33	52	50	36	
25	31	51	47	29	
21	44	54	44	31	
32	32	39	41	17	
30	29	38	45	33	
21	35	56	46	42	
34	39	46	47	32	
38	29	56	47	34	
26	28	56	43	37	
38	47	43	40	29	
26	21	51	39	33	
23	36	44	42	39	
24	26	47	45	34	
22	41	46	51	36	
25	41	53	40	37	
18	35	55	33	40	
20	33	51	45	40	
21	30	37	61	33	
25	19	44	43	39	
20	23	60	55	30	
19	33	42	60	40	
32	31	50	52	23	
16	45	62	43	39	
22	32	54	40	32	
21	31	50	41	39	
34	27	38	45	34	
30	36	44	43	42	
28	31	47	45	37	
25	31	59	42	29	
23	33	57	46	39	
21	40	43	46	37	
25	32	59	61	28	
23	29	64	34	40	
31	27	48	43	37	
19	36	44	42	22	
24	36	58	39	40	
28	39	52	41	38	
19	37	36	49	32	
22	30	42	25	38	
26	32	43	37	36	
28	30	45	45	37	
21	29	43	37	45	
18	37	46	50	31	
21	35	49	38	44	
25	32	28	35	27	
22	21	61	36	33	
27	38	43	65	50	
25	37	50	38	30	
26	34	41	50	17	
27	30	52	45	38	
29	26	49	36	42	
19	34	54	45	32	
24	31	47	63	47	
23	30	38	50	37	
20	28	52	42	27	
22	33	46	49	37	
23	35	42	31	42	
27	32	53	52	32	
24	31	44	60	33	
17	35	40	41	38	
17	34	58	42	42	
24	33	52	37	34	
28	35	45	54	46	
29	35	52	48	39	
17	38	42	47	46	
36	30	43	46	34	
19	35	47	36	36	
20	34	49	42	41	
24	18	39	40	36	
28	33	42	43	30	
27	28	48	33	32	
18	35	49	40	39	
27	37	34	42	31	
18	24	58	35	26	
23	30	38	50	31	
20	27	40	53	28	
21	38	48	48	40	
26	30	45	51	39	
24	35	34	44	29	
18	23	42	44	35	
19	32	44	49	33	
26	31	56	37	39	
26	25	51	39	29	
21	34	40	41	32	
20	31	34	32	35	
24	23	43	36	31	
14	33	60	44	31	
24	27	48	49	43	
31	39	46	43	43	
25	34	42	43	32	
23	32	43	60	31	
26	23	56	35	25	
30	30	48	34	43	
19	38	46	41	29	
24	34	43	36	30	
23	36	42	43	34	
30	27	43	46	30	
21	29	41	42	40	
23	32	48	38	39	
33	29	31	46	32	
25	42	34	50	29	
24	24	41	39	40	
22	31	51	43	28	
25	30	56	46	33	
21	30	38	37	27	
24	22	50	51	32	
17	32	42	48	29	
25	32	40	44	33	
26	30	51	36	29	
25	33	36	35	37	
23	27	34	39	34	
23	38	41	53	40	
20	21	57	49	33	
17	25	40	36	32	
22	27	47	40	39	
22	35	41	47	46	
25	41	47	40	36	
15	31	52	47	28	
20	27	47	45	40	
25	28	55	45	36	
16	25	52	43	48	
27	23	63	47	37	
21	36	49	42	39	
24	34	52	40	42	
19	28	36	32	31	
23	34	41	38	40	
17	31	43	42	37	
30	31	46	36	37	
17	34	47	61	31	
27	32	69	43	29	
24	24	50	40	26	
12	33	35	28	25	
20	27	38	41	42	
20	27	56	44	37	
23	38	47	41	40	
23	30	43	51	29	
18	33	60	35	22	
18	37	36	38	37	
20	35	49	33	28	
21	24	55	38	28	
23	29	43	41	25	
17	23	33	47	35	
28	27	41	32	31	
20	44	54	48	43	
17	17	42	57	31	
28	36	32	34	38	
17	32	48	47	39	
17	32	41	42	31	
25	28	55	35	30	
26	28	40	39	26	
22	32	25	53	45	
15	27	40	35	29	
17	24	37	45	27	
18	26	37	35	35	
30	29	43	50	36	
24	25	60	35	37	
22	29	40	48	26	
18	29	38	41	43	
17	39	42	43	37	
12	35	36	40	23	
22	24	44	37	26	
15	27	41	42	43	
20	30	30	40	29	
20	26	45	47	30	
23	31	31	42	37	
18	33	37	40	29	
17	30	43	46	30	
21	29	32	43	26	
18	36	46	26	41	
18	30	47	49	32	
20	32	39	45	46	
15	31	43	35	23	
20	17	34	47	36	
19	20	40	49	34	
32	25	51	47	35	
19	29	50	43	36	
19	24	49	47	21	
20	32	52	38	44	
24	26	37	40	42	
20	30	50	44	34	
25	25	57	43	38	
22	22	50	31	28	
21	28	45	46	36	
20	26	57	33	38	
25	32	34	49	37	
22	41	37	47	44	
24	22	35	35	43	
19	31	47	47	31	
23	26	40	52	30	
18	17	40	36	39	
15	31	50	48	28	
17	31	46	41	46	
24	30	62	50	24	
21	30	48	48	34	
21	30	46	43	34	
22	25	42	52	38	
24	35	44	40	39	
25	25	32	42	29	
21	26	41	29	36	
22	22	40	36	33	
12	35	37	43	40	
19	22	48	46	38	
20	31	47	43	27	
21	33	40	49	43	
18	24	41	51	37	
15	33	42	41	46	
27	37	46	41	32	
29	27	42	42	29	
19	20	51	52	36	
25	28	43	35	32	
20	21	47	47	34	
19	32	35	47	31	
17	25	40	48	28	
25	34	38	35	32	
25	39	49	39	31	
11	28	48	40	32	
16	22	53	31	33	
17	27	43	44	29	
27	28	39	26	34	
19	23	46	31	28	
18	22	47	41	40	
22	25	40	36	37	
27	21	45	53	34	
14	35	45	38	32	
25	28	44	46	30	
18	28	44	48	40	
22	23	41	43	25	
28	32	40	36	34	
16	36	41	43	46	
23	38	45	44	33	
15	23	41	43	32	
20	26	47	41	35	
21	27	52	43	36	
24	27	41	40	30	
26	33	51	36	31	
22	36	41	39	37	
17	28	32	49	30	
24	24	36	38	25	
18	26	38	33	38	
20	30	35	41	35	
17	25	36	47	39	
20	23	46	30	35	
18	40	45	53	44	
25	29	36	49	32	
24	27	40	34	31	
25	36	47	39	36	
19	26	55	34	28	
21	31	42	45	26	
24	32	34	42	30	
27	23	45	38	32	
20	35	36	45	39	
20	29	47	36	36	
23	33	35	47	31	
17	32	48	54	40	
15	37	68	38	37	
19	27	50	41	40	
18	27	37	38	38	
24	27	35	42	29	
24	32	37	48	28	
28	18	57	41	36	
25	34	38	48	34	
23	19	35	39	32	
22	30	40	44	31	
27	25	36	38	38	
16	27	32	47	47	
24	26	54	49	37	
19	29	41	46	42	
25	34	51	46	56	
10	23	43	41	33	
19	25	32	34	39	
21	24	43	31	38	
24	19	38	32	20	
25	21	43	41	49	
18	27	46	26	31	
25	33	43	43	33	
16	27	41	52	45	
23	26	40	49	34	
21	30	56	34	27	
14	31	49	37	35	
19	24	34	47	33	
19	19	39	37	37	
27	34	42	51	41	
21	30	47	36	41	
20	26	46	39	34	
19	25	42	38	27	
15	19	39	40	29	
20	30	40	28	37	
24	24	45	39	41	
24	29	36	47	34	
19	29	46	44	43	
19	23	48	45	29	
16	29	44	44	29	
20	20	53	28	35	
17	31	45	34	35	
25	29	29	56	42	
18	22	39	34	41	
16	26	50	49	45	
14	22	26	37	25	
16	27	33	39	39	
19	23	47	36	37	
15	29	44	40	37	
22	32	39	33	48	
16	24	49	39	34	
25	30	38	48	35	
22	29	52	34	36	
27	19	46	36	27	
24	21	46	24	28	
24	20	39	54	30	
30	31	64	37	36	
21	31	41	44	39	
14	28	50	45	38	
19	24	51	38	41	
25	18	53	52	37	
28	24	41	43	30	
26	23	44	23	24	
15	22	49	38	28	
23	24	44	41	29	
26	30	34	39	30	
17	35	40	42	35	
20	31	42	38	24	
16	24	46	46	41	
16	30	34	41	32	
23	24	37	35	33	
27	25	37	54	32	
22	29	50	32	36	
20	22	37	32	35	
12	32	42	36	41	
25	27	34	33	30	
23	24	40	32	38	
27	22	41	44	30	
16	33	35	36	21	
21	21	46	41	30	
14	26	41	34	33	
17	34	41	45	30	
16	31	34	47	36	
17	28	55	47	36	
19	24	43	42	33	
14	26	46	41	34	
14	28	31	39	36	
20	27	42	53	37	
20	35	41	49	29	
26	24	32	37	28	
18	17	38	49	40	
16	21	35	35	37	
19	25	44	38	38	
23	16	45	33	40	
16	32	56	37	29	
21	22	43	46	31	
16	24	37	48	46	
12	21	50	50	33	
16	27	34	43	39	
15	27	45	28	27	
17	26	47	39	33	
23	26	39	38	48	
16	29	30	32	39	
13	23	33	32	27	
14	34	41	46	29	
19	25	43	35	28	
12	25	31	41	45	
23	23	44	23	24	
18	16	22	41	31	
20	20	38	40	33	
14	17	40	45	43	
18	20	35	39	24	
16	29	36	36	49	
17	33	36	43	43	
24	24	39	38	36	
24	27	40	44	34	
20	16	44	40	21	
22	22	51	43	28	
18	33	42	50	31	
20	33	39	42	28	
17	22	49	43	24	
15	25	53	46	38	
20	24	38	46	33	
16	24	47	43	28	
11	40	45	37	34	
22	25	42	40	35	
16	25	42	37	49	
19	19	36	41	37	
22	22	30	46	26	
15	23	40	44	40	
25	30	28	38	30	
22	13	32	33	27	
26	24	39	51	33	
15	19	48	43	30	
24	33	44	55	33	
18	30	41	26	32	
15	25	45	41	30	
18	19	37	35	36	
18	32	34	43	35	
16	35	49	44	38	
16	27	38	31	24	
22	22	42	34	30	
14	23	45	28	30	
13	19	39	34	32	
20	29	38	30	33	
16	25	38	28	29	
15	26	47	40	43	
12	26	41	40	37	
16	20	38	35	30	
18	24	37	31	30	
14	28	40	36	38	
16	22	45	40	35	
10	26	47	34	34	
18	26	48	43	32	
18	21	38	39	25	
22	30	43	36	33	
18	24	29	37	27	
19	28	58	43	35	
25	28	37	54	33	
18	22	30	33	39	
11	26	44	33	37	
15	32	43	37	25	
17	21	28	48	23	
14	26	37	40	35	
19	24	51	30	33	
23	34	34	41	29	
19	20	42	34	25	
20	29	45	54	46	
24	32	36	41	25	
18	22	45	42	35	
22	26	43	42	33	
16	24	46	40	33	
28	21	39	43	33	
19	21	57	36	37	
20	29	44	36	29	
9	16	39	38	34	
21	23	34	32	34	
15	19	44	38	32	
23	22	38	40	31	
14	26	31	42	39	
13	25	34	34	29	
19	21	37	34	36	
12	22	32	41	43	
27	15	28	42	29	
30	20	38	36	37	
14	25	41	36	34	
21	25	45	26	43	
22	30	35	38	36	
18	24	45	40	34	
12	26	41	23	27	
15	21	36	40	29	
10	25	45	47	25	
15	35	35	30	32	
14	23	37	42	27	
30	21	48	44	29	
17	22	43	37	40	
26	22	49	48	32	
8	23	42	31	35	
14	25	44	40	39	
19	29	36	41	31	
23	20	35	38	32	
19	25	37	42	38	
21	19	39	39	29	
11	23	49	29	27	
16	22	37	41	38	
21	29	47	25	30	
15	21	36	39	37	
18	21	40	38	43	
15	37	35	31	33	
15	25	31	36	33	
15	22	38	43	36	
21	25	40	38	44	
15	27	41	42	27	
11	29	42	38	28	
30	24	42	50	42	
19	20	34	43	30	
19	28	35	28	32	
14	17	41	42	25	
14	21	36	41	29	
20	28	43	37	30	
15	25	32	38	35	
14	30	34	38	21	
19	20	36	40	32	
24	29	31	39	46	
10	25	36	46	43	
16	21	40	48	32	
24	22	36	35	34	
12	20	41	39	37	
21	23	29	34	25	
11	25	50	37	33	
18	31	38	35	32	
21	20	43	34	33	
12	31	39	39	37	
19	21	36	30	39	
19	28	38	37	33	
25	14	39	31	35	
20	15	31	38	37	
11	30	42	40	26	
18	31	43	39	42	
13	26	30	34	30	
24	22	43	29	35	
17	29	51	49	32	
19	22	35	34	31	
14	26	45	23	31	
12	21	32	31	33	
19	25	57	34	33	
19	26	35	35	32	
18	19	34	37	31	
19	18	43	42	39	
18	24	39	33	31	
19	20	35	39	23	
17	25	35	36	36	
15	25	36	52	32	
19	27	42	35	39	
20	29	42	49	20	
24	29	36	37	33	
21	28	39	31	39	
15	16	39	44	31	
12	19	34	43	32	
14	26	35	32	38	
17	20	32	33	33	
23	24	22	42	18	
23	30	36	35	43	
21	31	38	38	26	
14	21	28	49	36	
10	18	42	37	32	
12	15	41	35	32	
13	28	34	50	38	
11	25	27	36	31	
22	25	41	41	36	
12	26	35	35	41	
19	20	36	44	42	
21	30	48	36	32	
15	18	33	29	31	
10	29	39	39	33	
18	17	34	35	34	
13	23	56	41	32	
16	24	46	33	35	
9	23	33	31	31	
25	25	32	45	35	
12	23	41	41	32	
13	20	32	39	31	
15	25	36	40	32	
17	14	37	35	22	
10	27	42	34	33	
14	21	31	30	28	
17	20	38	27	32	
15	22	31	40	26	
13	22	42	42	23	
11	30	31	36	35	
24	13	36	45	38	
13	24	38	26	34	
19	23	40	34	36	
11	22	38	43	37	
23	28	38	39	32	
24	25	32	42	43	
10	14	34	35	34	
17	32	36	40	28	
18	32	27	32	30	
12	18	38	45	46	
8	19	35	31	31	
11	24	37	33	34	
14	28	36	43	24	
13	16	33	30	24	
15	22	40	30	40	
10	21	33	41	36	
11	19	34	43	31	
18	34	38	34	33	
16	23	44	27	33	
12	30	35	44	34	
18	20	32	37	35	
14	23	36	30	34	
20	18	35	41	26	
18	19	35	27	31	
14	26	39	32	42	
15	29	37	41	39	
18	23	36	43	27	
17	22	41	39	37	
21	20	42	28	24	
12	33	51	41	38	
10	28	35	36	21	
13	36	38	37	34	
14	25	36	42	27	
16	20	43	42	34	
11	17	32	42	36	
18	23	47	33	32	
19	23	35	38	30	
19	17	40	28	42	
15	19	33	32	35	
15	23	35	34	31	
16	24	34	40	30	
17	18	26	32	29	
19	22	34	30	33	
16	21	46	39	45	
12	31	32	36	30	
13	22	42	37	23	
16	20	34	37	30	
11	18	36	47	27	
16	21	31	43	24	
9	13	39	56	32	
29	24	30	36	39	
14	23	39	37	28	
18	19	39	34	28	
15	24	34	39	25	
19	19	44	37	28	
18	11	44	31	27	
21	24	35	33	35	
27	28	34	29	22	
22	25	34	31	33	
14	18	49	34	24	
9	26	27	34	30	
13	22	40	40	38	
11	20	40	32	43	
15	21	35	39	37	
10	28	46	33	30	
12	24	27	31	38	
15	23	29	32	35	
15	21	35	36	32	
17	27	26	34	42	
12	24	37	41	32	
9	17	41	34	30	
11	20	30	33	27	
14	15	38	35	35	
15	20	40	38	32	
16	24	51	28	31	
18	29	31	42	26	
20	17	51	37	40	
13	18	37	42	35	
15	26	41	35	29	
21	20	31	48	35	
18	28	35	41	35	
17	28	34	40	25	
11	13	36	34	32	
12	20	40	29	32	
13	22	48	38	25	
15	29	35	23	25	
12	23	38	30	27	
16	20	30	35	32	
14	19	40	24	30	
17	18	36	42	34	
16	25	41	38	28	
20	31	33	34	39	
18	20	41	33	25	
11	17	37	32	39	
15	24	33	31	45	
13	26	35	30	22	
14	19	30	47	38	
11	31	36	33	26	
17	17	35	23	28	
10	25	41	33	39	
11	20	41	34	37	
14	19	41	40	25	
11	28	39	34	38	
19	30	30	33	34	
18	28	43	35	35	
15	15	39	44	31	
15	18	40	38	22	
18	23	33	39	29	
14	23	42	44	39	
15	12	33	36	37	
11	25	37	35	21	
14	23	35	28	37	
14	14	42	31	24	
12	17	39	36	32	
8	9	47	37	27	
13	33	35	28	34	
10	34	43	36	33	
21	13	37	42	40	
15	21	38	49	27	
17	18	45	46	31	
11	24	33	40	32	
22	27	35	39	35	
20	19	34	42	33	
14	28	37	40	31	
11	15	29	40	27	
12	25	39	33	25	
14	19	31	40	33	
7	19	39	23	38	
9	26	27	31	30	
15	18	39	35	33	
18	22	34	40	28	
12	19	34	45	29	
17	29	35	31	30	
14	24	30	37	25	
14	20	28	40	31	
11	22	41	39	39	
14	14	34	31	29	
13	30	40	32	23	
20	21	35	25	34	
15	22	29	41	39	
16	17	34	40	37	
12	23	34	30	36	
12	18	35	40	46	
17	20	27	46	42	
13	19	42	42	30	
16	11	45	32	36	
11	33	50	41	35	
16	18	27	43	23	
14	28	36	28	21	
10	24	33	38	47	
14	14	32	23	32	
17	22	43	33	37	
14	26	35	40	27	
13	29	41	38	30	
14	18	52	38	38	
10	18	30	35	21	
13	30	37	41	23	
9	26	25	39	25	
15	24	33	43	30	
9	16	43	32	23	
12	26	29	37	30	
17	25	28	40	29	
15	16	28	30	37	
16	24	37	34	34	
12	16	39	35	23	
17	26	35	40	31	
17	18	30	35	34	
24	29	30	38	30	
13	24	48	35	24	
11	19	31	30	26	
12	24	33	30	45	
14	25	31	28	41	
13	22	35	49	43	
9	24	35	32	21	
18	20	33	45	18	
11	22	43	43	29	
11	13	36	44	32	
11	19	45	36	32	
12	14	36	30	26	
13	22	38	28	25	
17	22	30	39	31	
17	21	35	26	29	
13	19	31	35	38	
18	15	37	32	32	
20	22	34	32	35	
12	29	40	42	26	
13	25	35	42	37	
15	18	44	39	34	
10	28	20	46	33	
20	19	44	40	30	
7	14	37	28	38	
8	24	39	35	26	
16	24	45	42	39	
10	17	33	26	44	
7	20	33	42	27	
15	23	22	48	34	
9	18	33	32	28	
10	20	47	26	28	
13	17	38	30	35	
13	30	25	30	35	
12	27	40	36	34	
9	15	33	38	35	
12	21	24	33	24	
16	18	32	28	22	
20	21	31	34	35	
8	14	41	46	34	
8	28	30	37	26	
9	12	32	33	36	
10	16	32	35	27	
27	18	40	30	20	
13	21	47	22	26	
15	19	23	40	31	
19	21	37	29	37	
12	26	28	36	28	
16	24	28	39	40	
10	22	31	37	31	
13	23	29	26	34	
16	14	32	29	22	
12	14	31	44	34	
11	18	37	39	41	
11	20	31	29	26	
9	18	24	29	27	
8	23	35	34	35	
19	17	31	27	39	
15	11	37	29	35	
12	19	40	52	39	
15	22	44	40	38	
15	24	32	35	26	
7	21	40	25	32	
11	19	40	37	25	
14	18	44	43	28	
11	23	46	34	31	
11	21	37	32	33	
16	12	33	40	28	
15	22	38	36	39	
18	18	39	33	19	
14	14	43	31	25	
13	19	34	38	35	
21	22	37	28	26	
12	14	33	45	38	
13	22	42	40	30	
19	15	38	38	29	
12	21	25	26	47	
13	18	31	44	42	
11	26	43	34	32	
11	13	40	31	39	
12	13	34	37	29	
17	18	35	39	32	
15	27	46	38	30	
10	18	43	28	31	
17	10	33	30	26	
16	27	45	26	31	
9	20	29	25	27	
20	26	33	27	33	
13	17	32	37	42	
12	22	32	32	37	
18	29	22	24	31	
16	13	44	28	43	
17	20	28	42	34	
16	16	30	21	33	
14	25	36	38	30	
20	13	51	29	32	
14	13	30	29	25	
9	24	32	28	39	
9	24	39	39	33	
19	18	37	25	32	
7	23	29	36	28	
13	16	30	40	35	
12	21	36	42	35	
17	22	34	38	29	
10	18	28	24	34	
12	14	41	34	36	
10	19	26	36	28	
13	19	21	27	36	
15	13	35	35	32	
16	19	42	33	39	
11	14	38	38	32	
16	19	30	33	26	
13	17	29	35	43	
7	21	38	40	28	
13	19	24	40	33	
10	26	35	37	29	
11	23	50	32	35	
10	16	33	41	25	
19	14	29	30	29	
13	20	34	36	29	
16	30	31	37	28	
13	16	43	35	36	
7	24	29	31	29	
16	16	30	44	32	
15	21	35	43	25	
6	18	19	44	28	
9	20	31	30	31	
10	22	33	47	38	
13	17	31	23	29	
15	27	33	39	32	
15	12	27	37	25	
17	22	45	36	37	
19	12	32	38	39	
11	31	26	33	28	
14	15	40	33	49	
15	12	35	28	34	
9	24	29	36	29	
23	24	40	33	23	
11	27	34	34	37	
5	21	43	41	27	
17	15	29	43	33	
13	18	31	42	29	
11	20	40	48	48	
17	23	32	31	32	
9	18	23	30	26	
14	21	31	37	34	
11	17	37	37	28	
11	18	34	33	24	
11	16	36	33	32	
11	22	27	31	23	
7	17	28	19	32	
11	22	38	35	23	
14	15	30	30	38	
12	10	34	32	29	
10	19	42	30	33	
15	19	24	33	28	
17	20	31	46	25	
10	13	37	27	22	
9	15	47	51	32	
19	23	34	36	24	
8	22	31	42	25	
10	24	28	38	33	
15	20	26	31	37	
13	20	25	36	21	
15	12	34	29	29	
13	14	33	33	25	
16	17	28	34	35	
20	23	35	40	29	
10	12	33	41	34	
16	17	32	34	30	
13	14	31	38	26	
19	24	41	34	35	
16	25	29	29	25	
12	21	29	32	40	
10	15	46	27	31	
15	19	41	36	27	
13	10	32	33	27	
19	19	35	42	34	
12	17	31	28	31	
12	16	39	40	31	
14	24	30	46	28	
14	19	34	38	32	
11	18	31	35	31	
15	15	35	28	29	
13	20	29	33	32	
13	15	33	22	30	
13	21	35	28	33	
16	17	31	30	30	
14	29	32	38	34	
8	26	39	39	31	
11	11	35	38	37	
10	23	29	36	35	
11	15	29	34	50	
15	21	39	31	42	
11	22	30	32	22	
13	19	34	41	33	
13	21	34	30	25	
14	15	38	39	31	
16	18	32	36	34	
14	23	29	34	31	
16	19	32	24	23	
12	18	36	30	33	
11	20	37	36	38	
8	21	33	44	25	
7	24	36	30	24	
20	16	33	27	32	
14	27	38	36	37	
12	20	43	37	40	
14	20	45	29	29	
11	17	28	29	25	
17	27	27	26	27	
6	21	32	46	29	
10	17	36	20	32	
10	11	41	28	29	
12	17	44	29	42	
13	23	25	31	30	
13	18	32	40	39	
13	11	25	32	33	
15	20	30	31	34	
11	17	31	40	25	
11	15	27	17	31	
17	16	36	43	33	
20	15	26	32	34	
