#PicoHarp 300  Histogram Data			04/11/2023 03:56:27 PM
#channels per curve
19141
#display curve no.
0	1	2	3	4	
#memory block no.
0	1	2	3	4	
#ns/channel
0.5120	0.5120	0.5120	0.5120	0.5120	
#counts
1	1	2	4	11	
2	0	5	7	14	
1	1	2	4	17	
0	0	3	9	13	
0	1	3	9	19	
1	0	0	6	14	
0	1	4	4	28	
0	0	1	5	11	
0	0	2	5	11	
0	0	2	13	10	
0	1	2	2	9	
2	0	4	9	12	
2	6	4	10	16	
3	6	9	11	23	
8	10	13	12	20	
14	11	18	28	25	
22	18	29	33	42	
29	23	36	37	50	
44	54	65	83	75	
78	66	72	66	82	
78	72	74	94	97	
75	78	83	90	80	
87	86	70	100	87	
70	79	84	94	80	
66	100	84	76	68	
81	82	72	80	83	
84	69	83	82	72	
76	79	72	69	72	
100	79	100	86	67	
72	74	78	82	79	
87	83	72	93	72	
73	71	88	65	73	
69	84	66	78	91	
72	76	59	79	60	
65	73	74	74	80	
70	65	77	79	91	
72	76	68	89	59	
56	75	66	65	65	
62	50	83	69	76	
64	65	85	71	52	
67	76	68	80	72	
65	58	60	65	60	
78	66	65	84	52	
68	63	74	72	57	
64	74	70	72	65	
63	75	73	66	58	
55	70	65	85	56	
58	77	79	67	58	
59	58	69	68	59	
68	72	67	77	74	
72	82	71	67	64	
58	59	69	58	61	
71	79	53	69	77	
60	75	64	62	56	
83	67	64	70	63	
54	67	64	64	63	
59	78	76	71	67	
74	63	55	70	63	
61	57	61	64	63	
55	84	72	69	73	
57	61	70	82	62	
52	59	54	66	55	
58	67	70	57	74	
55	70	68	60	69	
66	76	74	78	55	
60	68	70	84	70	
70	66	67	65	50	
62	56	70	86	74	
63	52	75	62	58	
41	61	64	52	65	
58	65	64	73	58	
55	54	61	56	52	
54	79	61	75	65	
44	62	79	65	53	
58	66	58	73	64	
44	78	54	77	54	
46	54	46	79	50	
56	63	54	59	56	
49	56	67	83	57	
62	52	68	51	70	
66	72	58	67	67	
59	65	54	70	85	
52	69	68	76	59	
61	74	66	73	68	
50	63	61	65	56	
48	60	72	59	62	
57	51	51	66	85	
55	55	57	59	79	
51	63	64	70	58	
46	51	69	58	59	
49	70	68	74	58	
60	56	66	63	63	
59	59	53	67	60	
57	73	74	60	69	
64	67	66	64	68	
60	60	69	84	55	
48	52	64	70	58	
53	65	79	72	57	
58	73	68	60	71	
52	57	66	71	50	
53	64	77	79	64	
40	56	70	64	61	
43	51	51	69	68	
53	55	67	76	62	
53	62	60	59	56	
40	65	61	66	64	
53	51	59	51	56	
42	55	59	64	57	
52	74	67	62	62	
36	61	57	67	51	
49	55	59	64	57	
59	54	58	68	51	
53	58	54	58	69	
43	52	55	72	55	
42	54	73	72	53	
53	54	64	70	60	
49	61	54	73	44	
58	67	80	53	62	
51	45	59	60	61	
55	65	66	73	55	
49	59	54	57	67	
57	58	58	53	65	
44	44	71	57	67	
42	50	69	72	68	
52	60	67	64	44	
40	72	74	74	56	
54	47	57	58	52	
38	67	53	61	48	
41	45	55	65	75	
52	54	70	49	55	
41	69	63	58	59	
40	64	65	54	58	
57	55	62	62	65	
46	58	58	58	58	
58	49	74	51	54	
41	68	70	68	45	
44	55	53	58	51	
37	60	60	73	60	
56	63	61	60	58	
43	62	65	63	59	
40	56	52	58	59	
45	58	71	53	76	
36	62	43	61	59	
41	49	66	64	70	
40	55	70	66	54	
49	67	57	64	85	
40	67	67	46	61	
45	59	52	58	71	
40	56	58	49	60	
44	33	54	59	67	
47	45	54	63	60	
44	48	57	56	68	
53	45	60	64	51	
48	54	60	63	65	
48	61	58	75	62	
39	50	61	76	52	
48	57	59	49	55	
40	39	51	58	44	
41	57	63	69	69	
44	58	67	59	61	
40	54	66	59	68	
42	50	73	64	50	
39	52	70	71	58	
47	61	63	79	45	
39	61	57	49	64	
41	58	51	58	57	
46	57	65	71	67	
41	61	68	65	51	
46	48	53	60	48	
39	52	60	61	56	
36	53	44	67	52	
45	59	78	69	51	
40	50	55	76	64	
45	47	49	73	45	
45	61	54	55	67	
31	53	60	54	48	
46	46	53	71	57	
40	53	70	63	64	
55	47	67	83	60	
26	43	61	64	55	
42	66	70	51	55	
40	57	68	86	57	
33	51	48	69	56	
33	45	45	55	53	
32	35	60	57	58	
37	35	60	64	43	
35	46	55	66	65	
45	46	55	54	56	
42	52	51	53	59	
31	46	61	55	74	
37	64	70	66	45	
34	52	58	60	56	
31	42	54	58	63	
37	45	64	57	60	
36	61	63	52	46	
34	49	46	52	55	
32	44	64	57	77	
34	57	50	46	52	
40	53	66	57	53	
41	47	54	64	69	
43	45	51	57	60	
43	47	56	73	48	
31	45	66	68	40	
32	60	56	54	65	
36	46	55	60	64	
37	49	60	50	44	
27	44	48	69	71	
29	51	65	55	56	
35	54	73	53	44	
32	45	81	81	60	
33	39	42	49	66	
40	50	70	72	59	
27	64	58	68	58	
35	60	51	60	61	
35	50	45	59	61	
35	54	64	80	57	
37	38	55	48	69	
33	46	60	67	57	
27	44	51	54	58	
41	55	43	65	71	
39	43	60	61	70	
30	54	58	60	49	
31	46	58	56	63	
26	55	62	51	49	
38	59	59	62	64	
32	50	46	69	58	
41	51	58	68	51	
26	57	77	58	56	
44	50	54	69	68	
40	55	66	59	47	
29	44	63	53	67	
36	54	54	53	62	
36	46	73	62	56	
31	52	49	58	63	
32	51	56	64	60	
36	44	50	65	62	
33	50	45	56	64	
35	48	53	60	61	
34	56	48	61	62	
45	41	58	54	64	
33	52	62	64	65	
30	48	61	61	63	
31	49	65	63	59	
38	49	51	55	55	
29	55	50	57	61	
41	59	69	71	61	
29	28	54	56	57	
36	46	65	59	74	
37	52	59	78	56	
43	40	60	52	62	
32	46	52	69	47	
27	43	66	65	63	
34	48	46	55	43	
26	37	66	69	58	
35	43	61	75	54	
32	46	55	58	46	
36	50	50	71	56	
34	45	55	61	57	
32	34	44	60	67	
29	55	58	62	60	
27	43	59	60	52	
25	33	60	57	51	
30	39	59	64	61	
33	47	66	66	59	
38	43	57	62	56	
40	46	41	52	69	
33	36	59	38	52	
25	37	46	61	64	
28	53	63	72	64	
25	48	51	61	68	
25	50	61	60	62	
25	62	67	70	51	
35	43	48	56	40	
38	51	53	52	70	
27	50	56	52	51	
41	39	66	59	56	
30	42	56	63	61	
34	37	51	55	62	
32	43	52	58	55	
27	45	49	67	58	
31	50	55	54	60	
30	31	54	64	60	
34	49	46	63	59	
29	40	51	52	58	
30	46	52	51	57	
34	52	66	53	58	
29	31	56	57	60	
45	48	63	62	65	
33	50	59	42	50	
23	44	48	51	73	
28	39	43	68	57	
27	35	34	53	58	
36	50	57	78	57	
26	48	65	71	50	
39	54	56	53	59	
26	49	62	57	49	
28	44	59	53	65	
25	47	60	66	83	
21	41	48	68	54	
34	41	52	50	63	
28	36	63	69	61	
34	40	45	59	58	
30	49	50	55	60	
32	47	58	61	56	
21	41	59	45	58	
31	51	60	64	61	
29	48	43	69	79	
21	36	40	55	56	
29	46	50	49	67	
27	37	52	57	60	
26	41	59	50	66	
23	43	63	54	45	
24	59	45	64	49	
31	42	54	70	49	
27	44	43	56	55	
34	62	48	45	57	
28	38	65	58	59	
31	53	56	44	57	
37	49	60	50	50	
24	44	58	61	50	
25	35	49	56	58	
25	39	66	69	54	
32	37	47	70	61	
27	59	49	59	58	
19	32	55	60	59	
20	35	53	62	52	
25	42	52	56	55	
21	47	52	59	55	
43	49	53	67	49	
35	48	49	51	50	
35	50	52	63	63	
28	40	53	62	63	
21	51	58	62	58	
20	50	50	51	53	
24	43	49	51	64	
20	40	58	62	66	
26	52	43	60	60	
29	41	50	71	43	
19	46	53	52	50	
29	40	48	61	46	
43	48	57	58	55	
22	44	59	42	43	
27	43	45	57	71	
23	34	51	58	57	
29	41	59	58	54	
22	40	39	57	61	
30	46	71	58	47	
24	51	54	50	48	
33	40	46	64	55	
33	49	48	58	62	
25	43	41	54	52	
30	35	50	45	53	
19	43	62	54	59	
34	47	45	49	45	
27	39	55	53	68	
25	41	61	48	49	
30	45	50	65	49	
26	41	50	58	64	
33	35	51	76	58	
36	43	54	47	61	
30	37	57	54	68	
25	36	61	47	65	
25	54	54	51	57	
34	41	44	47	55	
28	48	49	58	63	
29	41	54	70	43	
28	38	52	68	54	
22	41	56	56	56	
25	45	48	53	61	
22	55	61	53	43	
22	42	37	56	62	
26	35	54	68	47	
30	45	46	62	48	
24	41	53	67	53	
28	33	39	47	58	
30	41	44	64	64	
31	40	49	53	47	
27	25	60	65	63	
20	52	56	55	60	
22	40	52	59	53	
31	39	54	53	55	
27	44	43	57	48	
24	43	54	64	49	
31	44	61	55	64	
29	40	53	51	62	
22	38	54	64	52	
20	40	37	58	57	
23	47	47	50	56	
33	47	60	57	64	
22	22	64	54	75	
16	41	40	47	61	
20	50	59	56	60	
24	32	43	59	52	
25	32	53	68	65	
28	48	44	60	57	
27	38	43	53	54	
21	41	54	60	53	
32	31	55	60	62	
28	33	48	49	58	
31	45	47	70	50	
28	30	51	47	54	
20	41	50	51	48	
27	41	58	45	70	
30	42	45	54	53	
32	41	57	74	54	
25	50	48	53	64	
16	41	50	56	70	
27	31	61	60	57	
22	39	55	55	53	
21	44	52	53	52	
20	45	53	63	64	
24	42	57	55	62	
28	42	49	52	58	
21	36	50	72	59	
25	38	63	61	42	
25	39	56	63	53	
19	39	52	62	56	
33	37	52	63	58	
21	44	59	45	48	
17	42	41	47	50	
31	30	44	66	57	
14	37	43	56	65	
23	33	42	67	63	
20	33	48	57	44	
16	42	60	54	43	
19	33	50	51	60	
23	27	66	46	56	
16	32	38	69	61	
18	30	37	55	86	
15	43	41	64	63	
28	30	55	67	62	
23	36	67	68	43	
20	37	53	63	62	
22	31	51	46	65	
19	30	46	65	66	
18	34	50	61	50	
23	34	42	75	65	
20	37	50	59	58	
24	41	50	67	43	
16	28	47	54	49	
22	47	49	82	52	
24	30	42	61	41	
25	34	54	43	61	
25	35	53	47	65	
26	38	48	57	60	
22	38	47	70	54	
30	47	48	58	51	
29	39	47	51	62	
20	33	57	61	69	
19	46	43	47	51	
28	36	45	47	51	
17	39	45	58	40	
29	28	44	67	44	
31	44	58	50	56	
21	39	61	63	64	
25	38	55	62	52	
33	28	55	58	45	
23	35	42	65	48	
17	44	47	46	50	
23	34	45	55	61	
31	31	42	70	55	
18	30	45	48	57	
24	39	61	58	64	
26	27	52	55	50	
26	30	51	53	59	
19	39	49	46	54	
24	39	54	52	58	
23	38	58	69	53	
20	35	52	53	47	
20	21	42	66	61	
28	34	48	64	61	
22	44	54	59	49	
16	25	53	59	52	
14	35	53	49	63	
19	44	58	49	48	
17	46	46	56	49	
28	31	58	50	44	
17	40	49	58	50	
25	40	54	51	60	
25	39	49	65	49	
19	31	37	54	54	
22	31	48	52	81	
24	37	53	55	42	
18	32	45	56	64	
22	40	60	51	64	
13	30	55	57	58	
24	29	53	60	53	
19	37	48	52	59	
21	39	48	51	57	
17	25	38	52	50	
26	28	49	55	58	
27	35	62	56	54	
19	27	56	52	75	
17	34	53	60	61	
25	40	48	68	50	
20	34	48	53	64	
25	40	45	53	49	
23	31	59	62	69	
18	37	52	58	51	
18	31	43	48	51	
18	48	36	57	60	
20	26	64	66	57	
28	27	74	46	59	
22	35	54	54	57	
14	35	51	49	77	
18	41	50	69	61	
29	32	39	56	46	
19	36	38	40	49	
26	23	45	57	48	
15	32	61	52	53	
17	39	43	60	51	
22	33	54	72	63	
15	54	38	54	53	
22	32	48	65	43	
21	49	48	51	48	
21	42	42	48	45	
16	36	62	47	56	
22	37	59	45	53	
20	36	36	64	58	
24	27	41	49	50	
19	36	56	43	62	
18	31	47	51	71	
27	34	46	62	44	
14	35	47	58	54	
18	33	61	43	62	
19	31	55	42	58	
14	37	49	65	61	
23	40	47	55	54	
18	33	42	57	56	
15	37	60	51	53	
19	29	32	56	51	
22	29	45	57	54	
14	33	45	50	62	
27	35	44	59	63	
27	30	42	71	61	
15	29	54	46	45	
21	34	46	61	37	
12	41	53	41	48	
19	36	43	49	50	
15	37	41	46	53	
15	32	45	59	62	
14	23	44	54	61	
29	30	47	52	61	
12	30	48	66	81	
15	35	53	54	51	
26	36	41	54	45	
20	27	40	52	45	
17	33	46	56	44	
17	43	55	49	59	
22	33	49	55	45	
26	29	61	54	70	
16	34	59	44	48	
15	24	37	56	58	
19	35	50	55	66	
25	39	45	44	52	
24	36	41	62	59	
20	38	53	37	65	
17	33	45	50	44	
8	45	44	61	54	
26	37	45	69	52	
13	26	42	53	62	
17	43	44	69	55	
15	20	60	64	52	
19	40	54	56	58	
25	35	46	44	48	
23	29	53	50	66	
17	50	40	61	57	
25	30	50	67	47	
19	37	51	57	44	
25	36	38	46	48	
28	33	50	52	47	
21	40	40	43	48	
21	32	44	50	53	
18	34	61	48	43	
17	37	49	56	75	
21	33	40	53	55	
19	33	33	60	53	
15	22	60	52	63	
17	31	52	52	53	
27	35	46	60	50	
29	36	48	53	50	
17	26	41	50	69	
20	23	55	58	45	
28	37	41	58	67	
18	35	57	44	49	
17	40	47	51	58	
13	29	50	45	55	
23	31	45	49	65	
12	31	36	54	54	
17	35	38	50	62	
30	28	37	59	50	
13	31	50	53	59	
13	34	43	65	65	
14	37	51	59	51	
27	29	46	64	40	
10	42	56	68	46	
11	28	40	49	49	
21	28	44	49	63	
16	33	43	60	67	
17	28	47	56	51	
13	20	60	44	51	
11	36	48	60	53	
15	36	54	52	69	
18	28	46	58	59	
12	20	56	57	55	
11	36	45	55	57	
14	24	36	41	62	
10	31	45	49	58	
17	33	51	53	45	
30	46	53	50	49	
20	19	43	53	61	
13	41	42	49	46	
12	26	41	56	64	
17	39	57	45	50	
15	36	52	51	62	
15	39	40	55	46	
7	34	40	42	65	
21	32	42	56	53	
16	31	45	54	70	
18	37	45	59	58	
15	25	54	49	41	
18	20	46	51	60	
18	25	43	51	70	
20	41	56	54	46	
18	34	44	64	56	
14	29	44	42	67	
16	30	39	52	57	
22	22	48	53	50	
20	27	44	47	64	
15	32	50	61	39	
22	38	50	63	50	
7	41	60	57	63	
9	32	49	52	45	
14	39	31	55	64	
17	34	67	53	56	
12	40	51	48	39	
21	28	45	56	57	
12	28	46	51	59	
14	35	48	53	55	
12	31	48	49	66	
19	28	37	51	46	
14	40	56	59	53	
13	31	42	54	61	
13	26	45	44	57	
15	31	46	55	61	
22	27	41	40	59	
13	29	34	50	50	
16	28	50	66	63	
20	27	41	56	44	
15	22	38	48	66	
10	28	47	53	46	
15	18	48	51	50	
28	23	50	55	49	
19	34	43	44	55	
10	35	44	51	58	
17	33	53	52	53	
15	30	49	59	60	
15	41	32	46	70	
12	36	45	49	57	
16	33	48	46	49	
14	35	43	62	61	
21	29	35	49	57	
14	31	54	50	55	
20	42	64	65	52	
15	32	46	48	59	
21	29	50	56	44	
14	35	46	54	51	
15	27	42	53	41	
27	27	47	30	53	
17	27	58	53	49	
15	25	48	58	55	
15	36	40	47	48	
16	36	40	52	58	
18	38	41	47	54	
21	27	50	56	73	
14	33	50	65	46	
14	28	42	49	57	
14	27	44	65	60	
19	24	38	47	50	
18	29	51	42	40	
10	36	39	56	53	
15	41	45	57	53	
16	20	36	57	53	
16	16	53	54	43	
12	27	46	53	66	
19	32	39	63	55	
22	25	40	48	59	
15	31	37	59	65	
17	26	44	55	40	
16	26	39	49	52	
20	31	42	49	53	
18	28	39	52	59	
19	27	49	54	56	
22	40	48	51	59	
22	31	52	51	57	
19	32	47	44	52	
11	40	62	48	51	
16	44	49	48	46	
15	23	42	45	48	
7	23	42	52	59	
12	27	47	44	49	
17	37	41	60	34	
17	25	48	50	47	
14	26	39	52	50	
7	30	48	59	43	
30	29	43	53	52	
11	21	41	44	63	
17	28	38	41	66	
16	38	38	47	58	
8	31	50	51	58	
15	24	48	53	39	
11	25	34	49	49	
14	29	45	43	51	
15	26	40	47	54	
22	44	46	47	56	
14	27	39	42	44	
16	25	54	50	51	
17	33	54	47	62	
16	35	50	55	55	
22	36	40	55	64	
13	31	43	55	55	
17	42	49	58	54	
12	29	52	63	44	
10	35	40	43	59	
12	14	32	55	54	
20	24	52	49	76	
19	32	42	69	46	
19	25	38	50	61	
22	35	36	70	53	
12	22	50	55	44	
15	31	44	41	65	
21	23	41	63	50	
16	25	46	50	55	
19	26	30	54	42	
17	27	46	52	50	
17	26	38	55	52	
11	28	42	56	59	
8	36	39	52	53	
11	27	52	52	57	
19	26	38	57	59	
12	31	36	54	40	
25	27	42	47	41	
16	25	33	50	48	
14	28	44	53	51	
16	19	46	38	58	
17	23	46	52	49	
27	20	38	49	54	
22	41	44	51	52	
13	29	46	55	47	
13	19	44	52	57	
15	31	41	55	46	
15	28	33	46	61	
17	35	42	54	48	
14	31	43	52	49	
19	24	45	54	51	
11	28	45	59	51	
23	31	34	53	70	
14	24	41	52	53	
12	29	37	39	51	
16	38	40	38	57	
14	32	53	50	59	
15	29	45	43	61	
14	19	37	60	50	
17	20	44	33	45	
15	18	47	51	51	
18	26	40	45	51	
21	25	47	48	49	
17	29	39	49	54	
7	39	46	58	49	
10	26	39	44	59	
20	24	37	49	56	
15	25	50	48	54	
15	21	38	39	50	
12	33	41	56	48	
18	26	49	54	57	
18	25	47	46	50	
14	26	38	60	45	
9	19	30	39	69	
11	28	46	49	53	
13	24	41	53	54	
16	20	48	58	54	
9	30	44	58	53	
9	24	32	59	63	
12	20	43	41	50	
16	27	49	79	51	
10	35	36	50	43	
13	25	44	38	42	
13	30	49	42	55	
13	37	48	52	47	
8	25	49	44	68	
11	36	58	39	54	
10	23	47	54	51	
19	23	33	44	44	
8	21	44	58	54	
17	26	44	51	52	
14	26	45	53	44	
29	38	30	61	49	
8	23	47	63	65	
6	21	40	63	49	
16	23	46	48	49	
14	24	34	53	64	
15	17	36	54	47	
16	23	33	53	75	
16	25	39	48	39	
16	27	38	43	56	
10	24	37	66	52	
5	38	33	47	55	
4	24	44	46	46	
17	31	45	52	50	
7	24	39	52	56	
15	26	30	49	38	
20	32	35	53	54	
11	36	51	45	48	
14	23	45	45	52	
16	27	47	46	42	
11	31	34	62	39	
13	21	51	60	58	
15	21	37	53	50	
15	25	41	55	46	
16	33	37	51	68	
12	28	50	49	44	
12	22	43	48	68	
17	22	45	52	55	
11	25	37	33	55	
14	29	50	42	48	
12	27	32	50	54	
14	28	39	44	41	
8	21	48	41	32	
11	30	38	57	57	
15	33	40	51	56	
14	31	29	49	44	
17	14	48	51	44	
13	23	50	47	60	
10	26	50	54	57	
8	23	48	66	58	
12	26	56	35	54	
12	21	44	42	61	
12	22	33	45	45	
13	26	43	48	53	
21	36	38	48	53	
12	17	45	52	47	
11	38	38	57	51	
16	26	33	46	46	
11	23	39	54	60	
15	26	35	54	51	
19	26	49	56	62	
8	27	38	54	42	
15	26	31	65	37	
18	21	43	47	58	
17	40	48	50	51	
16	23	41	52	44	
6	20	40	43	57	
16	31	29	46	59	
17	25	30	57	48	
14	17	42	60	47	
9	26	38	49	61	
16	19	38	45	52	
11	14	38	57	59	
21	26	39	41	49	
18	25	37	55	45	
18	27	39	67	59	
21	30	39	47	47	
7	28	51	48	61	
15	27	42	46	37	
12	25	25	42	50	
10	22	47	37	57	
10	30	38	49	52	
9	22	34	39	54	
8	26	42	58	62	
9	25	39	55	65	
15	22	41	38	43	
18	28	44	59	44	
13	33	40	55	50	
12	32	37	68	52	
14	33	48	46	51	
21	24	45	49	51	
15	24	55	55	53	
16	29	43	48	61	
7	30	37	45	51	
9	25	47	53	55	
16	23	42	50	56	
9	23	55	60	37	
13	28	39	51	54	
9	29	28	46	54	
14	17	34	44	52	
14	28	48	53	51	
17	27	34	40	48	
10	23	37	43	68	
5	21	43	50	44	
14	21	47	47	57	
14	22	36	62	39	
14	25	43	54	48	
14	24	44	56	52	
15	32	45	46	58	
10	26	41	45	44	
16	32	51	55	53	
12	25	27	55	52	
10	29	44	50	60	
14	27	33	54	50	
8	25	37	54	48	
15	23	37	44	53	
8	22	33	41	54	
17	27	36	43	50	
12	31	36	58	46	
11	26	49	48	57	
20	16	45	55	47	
9	24	41	59	46	
11	27	40	53	40	
11	25	41	42	44	
8	22	52	49	56	
12	24	31	55	55	
10	27	31	45	57	
14	30	42	46	51	
20	19	33	49	55	
15	33	55	44	41	
17	28	38	44	45	
12	19	42	44	53	
13	19	46	48	56	
12	32	42	53	50	
12	24	36	50	37	
12	27	37	48	61	
10	18	37	46	60	
8	23	37	49	51	
7	26	44	56	55	
7	23	40	46	61	
12	33	35	51	61	
7	30	43	61	50	
12	19	37	52	55	
11	14	26	57	52	
15	18	39	54	55	
10	28	44	49	58	
7	30	37	52	59	
18	20	40	38	56	
5	27	41	55	62	
12	24	44	52	51	
12	22	37	46	45	
15	20	35	36	63	
15	20	43	39	50	
12	32	35	54	47	
11	27	35	53	58	
9	15	32	53	53	
13	25	28	44	44	
21	25	50	55	37	
14	25	38	52	58	
15	28	41	42	54	
14	25	45	77	48	
16	14	27	31	50	
16	24	38	40	61	
10	26	35	51	46	
12	16	43	55	53	
11	27	35	34	41	
10	29	45	56	43	
11	24	37	49	49	
8	18	36	63	63	
7	28	39	39	51	
10	20	42	43	47	
13	32	42	32	51	
13	19	41	50	41	
6	24	34	58	47	
10	25	42	49	47	
14	25	35	48	45	
9	21	35	34	47	
15	17	48	45	42	
11	25	36	55	61	
11	23	39	51	49	
12	24	40	58	56	
12	33	29	50	45	
11	26	36	55	57	
15	24	39	50	58	
12	20	38	42	63	
8	29	35	59	62	
14	24	44	46	65	
14	22	49	46	43	
11	22	32	46	52	
14	16	33	44	62	
9	22	30	57	50	
10	14	40	46	64	
9	19	44	52	45	
9	32	36	47	63	
6	23	37	43	55	
9	25	46	34	49	
15	23	37	42	52	
13	29	36	55	48	
9	20	43	48	59	
15	25	39	42	49	
19	26	36	46	66	
11	25	48	56	47	
8	21	33	58	51	
14	27	42	49	48	
10	18	40	48	54	
11	14	46	51	49	
12	23	39	50	54	
5	27	41	37	57	
14	26	52	54	50	
12	17	43	53	43	
12	21	39	45	45	
10	26	41	53	50	
15	24	36	42	46	
20	21	38	58	43	
2	21	35	48	53	
7	24	39	51	46	
12	28	34	37	60	
10	20	48	35	54	
11	24	42	61	45	
13	19	51	54	62	
12	34	42	44	51	
13	26	42	49	51	
11	26	28	60	48	
12	27	47	62	49	
16	21	36	59	49	
14	15	49	47	50	
7	25	43	36	46	
11	15	45	42	58	
10	16	40	57	60	
8	25	37	50	35	
8	24	35	53	42	
10	18	44	55	56	
9	22	41	56	57	
15	22	30	49	59	
18	33	44	49	54	
10	25	34	59	43	
8	25	38	35	54	
17	26	44	49	56	
8	22	42	54	40	
9	26	44	45	47	
15	27	33	48	48	
11	23	44	39	55	
12	15	48	53	50	
9	16	32	39	51	
10	22	30	39	56	
14	28	33	58	53	
13	24	37	39	53	
12	20	41	34	46	
11	25	34	40	53	
10	19	27	42	42	
10	28	38	45	54	
14	17	31	63	57	
15	18	48	46	54	
14	30	33	46	59	
8	25	38	61	42	
13	33	37	50	55	
14	23	35	39	72	
7	29	33	52	62	
8	22	31	58	46	
9	22	51	59	44	
13	22	33	51	48	
11	21	27	46	67	
10	23	43	38	50	
8	22	34	41	57	
18	18	48	47	51	
6	16	33	42	59	
3	27	34	50	45	
13	30	26	60	57	
12	21	35	43	32	
5	18	48	54	49	
8	21	39	48	54	
10	24	44	50	48	
11	18	32	50	59	
8	30	46	47	54	
12	21	45	56	58	
13	20	41	47	51	
10	22	41	52	56	
9	30	41	52	63	
11	15	39	52	43	
8	31	40	48	59	
6	18	40	56	58	
9	12	47	44	52	
10	17	40	57	65	
11	25	42	58	36	
7	20	43	47	54	
10	23	31	47	55	
7	39	29	36	46	
11	31	31	38	50	
8	21	36	50	60	
6	23	33	42	48	
7	14	46	33	57	
10	25	27	52	55	
6	32	37	53	49	
10	28	36	50	53	
13	11	35	41	54	
13	27	33	45	51	
9	17	41	39	36	
14	25	30	55	52	
11	26	35	59	47	
9	33	39	46	74	
8	24	34	51	47	
12	29	39	46	49	
7	21	41	39	49	
13	21	40	46	49	
6	24	42	51	53	
6	30	45	45	51	
8	19	44	45	37	
15	34	33	45	45	
14	16	38	49	51	
10	11	34	51	41	
4	16	42	51	51	
10	21	28	51	69	
8	18	42	40	55	
7	20	32	57	53	
12	19	33	58	51	
8	15	37	41	43	
11	24	43	50	48	
6	21	53	55	52	
9	19	37	54	43	
9	18	32	40	53	
9	23	49	50	45	
10	25	33	48	62	
10	22	30	41	46	
9	22	28	41	51	
1	25	44	57	55	
10	25	36	52	66	
8	24	33	42	37	
11	24	43	46	41	
10	31	51	55	42	
14	25	38	46	42	
6	19	39	43	48	
4	19	47	48	57	
10	22	40	39	48	
11	24	39	51	58	
16	25	38	46	48	
4	22	46	67	50	
15	30	29	39	45	
9	25	34	48	49	
12	30	44	44	66	
6	21	41	48	63	
8	29	38	51	42	
8	25	44	41	44	
7	22	43	43	56	
11	16	45	43	43	
7	20	38	51	61	
5	22	25	44	55	
17	19	36	49	61	
14	27	37	34	56	
10	16	42	53	41	
5	22	44	51	60	
9	23	35	50	46	
10	14	39	48	54	
8	19	32	41	46	
7	18	33	46	53	
10	19	34	46	50	
9	24	45	51	51	
9	18	37	45	54	
12	17	34	48	52	
11	12	36	42	57	
13	20	39	53	55	
9	20	46	51	56	
14	19	52	60	48	
7	12	33	51	45	
9	19	47	42	41	
11	21	28	41	58	
10	28	32	37	43	
6	24	36	44	50	
14	24	34	59	50	
9	16	24	62	55	
9	18	36	47	46	
9	16	31	58	48	
9	10	45	47	53	
14	29	34	45	47	
10	15	29	46	41	
10	19	36	35	45	
10	20	36	53	51	
7	22	39	59	39	
5	18	42	44	47	
6	11	44	39	47	
6	24	27	45	36	
7	23	33	68	40	
11	33	31	43	49	
12	16	29	42	54	
9	14	35	49	65	
11	25	37	41	60	
12	14	27	45	61	
9	17	33	50	37	
10	15	44	38	55	
7	19	34	42	43	
10	19	44	42	50	
11	16	30	44	53	
11	29	33	45	41	
7	16	38	40	56	
9	21	52	47	50	
17	14	29	48	47	
7	16	38	42	45	
9	23	34	54	52	
10	24	35	47	57	
6	18	34	47	50	
9	23	49	45	54	
12	22	30	45	47	
9	24	48	32	49	
6	24	32	46	53	
11	22	32	47	47	
8	16	38	33	44	
6	17	32	48	49	
10	21	39	43	44	
8	19	47	37	60	
12	19	34	50	63	
8	14	35	38	54	
8	15	27	52	51	
9	27	36	53	47	
11	22	47	42	46	
10	25	37	48	37	
10	18	37	43	61	
7	22	30	48	57	
9	22	40	44	56	
7	16	40	41	59	
9	24	31	43	48	
8	25	38	46	67	
10	22	28	36	57	
13	17	46	51	57	
5	16	34	41	56	
9	31	34	55	55	
6	19	45	41	48	
12	21	24	45	49	
9	37	35	50	45	
9	24	39	42	43	
4	20	44	41	50	
5	25	42	53	49	
9	22	33	32	54	
9	12	28	49	36	
8	26	35	46	44	
5	26	49	34	45	
12	16	34	45	47	
2	27	49	49	55	
8	19	34	33	51	
14	21	35	45	59	
12	21	35	37	59	
7	18	35	37	49	
10	22	40	39	50	
8	19	39	34	52	
11	15	36	35	59	
16	18	38	42	53	
7	12	32	55	49	
7	20	38	39	55	
9	15	42	56	57	
11	18	34	32	47	
14	20	35	36	48	
9	18	31	40	55	
10	11	39	40	44	
7	16	34	38	54	
10	19	29	51	43	
10	20	29	53	62	
6	18	28	44	48	
10	20	31	54	56	
15	22	35	39	47	
10	23	32	49	62	
6	15	34	46	53	
12	9	38	33	45	
9	20	38	42	55	
15	16	28	42	49	
6	11	31	60	52	
9	22	24	33	52	
13	32	42	31	54	
7	19	26	50	54	
15	16	37	41	54	
9	19	38	44	44	
9	22	33	25	44	
12	27	36	39	42	
8	18	44	51	53	
12	15	31	40	39	
6	17	35	37	48	
11	26	30	41	51	
6	21	25	41	50	
5	13	38	56	50	
5	19	32	45	52	
13	17	36	47	70	
6	17	31	42	41	
9	16	27	51	55	
8	18	32	44	56	
9	18	21	55	56	
10	26	25	35	56	
11	17	32	30	42	
7	18	40	37	56	
10	19	31	42	55	
3	24	33	49	56	
7	29	40	52	50	
6	20	34	41	52	
8	25	39	55	47	
5	17	34	41	61	
6	12	39	49	37	
9	17	17	56	52	
10	20	30	35	54	
10	17	29	35	48	
12	19	27	57	38	
6	18	34	45	49	
11	31	26	62	48	
12	18	42	51	66	
10	18	26	50	52	
8	21	42	50	40	
10	15	46	45	53	
10	16	44	47	49	
12	8	31	51	48	
7	17	36	36	45	
16	19	38	41	44	
7	19	32	37	44	
9	17	27	34	44	
4	17	37	50	48	
6	23	26	43	48	
9	15	38	51	40	
9	20	26	48	43	
8	17	33	40	60	
5	22	34	38	51	
11	16	22	39	57	
6	27	38	43	48	
9	23	35	43	57	
8	19	28	40	42	
3	16	33	57	47	
10	22	29	47	52	
3	19	37	42	38	
6	14	36	40	51	
9	14	32	53	51	
4	21	41	45	45	
10	12	20	47	56	
9	24	37	41	48	
11	19	34	36	46	
9	17	35	38	43	
8	14	33	42	48	
9	14	31	44	56	
7	16	30	55	47	
14	20	41	48	56	
7	19	28	54	43	
12	20	42	50	60	
12	12	45	52	59	
11	20	43	35	59	
10	18	28	42	46	
10	15	35	32	62	
6	20	29	54	53	
9	15	27	45	71	
2	22	30	37	40	
7	18	38	46	60	
7	25	33	51	37	
11	14	32	51	65	
9	12	29	45	54	
6	26	40	57	61	
6	19	36	34	46	
12	20	29	41	47	
7	32	37	42	57	
15	19	39	55	46	
11	19	35	46	56	
13	19	31	52	57	
17	10	54	36	42	
5	23	31	39	56	
9	17	36	41	60	
9	23	35	42	52	
6	20	34	31	53	
10	13	32	36	42	
6	17	31	46	49	
6	17	37	61	57	
2	11	43	40	64	
9	20	34	32	45	
6	12	37	52	37	
10	9	47	40	42	
5	17	33	49	39	
4	23	22	51	56	
6	24	33	49	38	
4	24	31	51	57	
13	19	35	46	55	
9	8	37	44	47	
12	21	33	44	62	
9	12	35	41	41	
5	13	32	50	38	
6	19	29	54	43	
10	19	32	41	50	
8	20	30	42	43	
9	17	32	44	47	
3	16	34	36	40	
5	15	30	56	44	
9	11	32	39	38	
7	16	38	52	44	
1	21	36	50	37	
10	23	34	40	56	
11	17	25	47	48	
4	18	24	52	49	
8	28	34	38	43	
11	11	28	46	49	
7	14	35	57	44	
8	15	36	53	53	
13	15	33	46	57	
8	15	41	47	57	
8	15	32	60	58	
6	19	31	40	50	
8	17	31	39	44	
11	22	25	36	42	
8	17	43	40	46	
10	16	34	48	39	
7	23	27	38	45	
10	14	35	28	49	
6	15	33	33	47	
5	15	30	52	33	
11	12	32	50	43	
8	14	39	53	45	
7	17	33	39	50	
9	21	33	59	50	
9	21	31	49	60	
5	17	38	36	48	
12	21	32	37	48	
13	16	29	58	59	
5	18	32	46	45	
10	11	37	37	40	
7	13	28	55	58	
8	15	30	46	55	
9	18	31	34	45	
9	25	26	49	40	
7	16	27	32	53	
10	18	34	56	59	
7	16	29	48	57	
5	14	22	44	58	
6	17	32	24	61	
8	15	36	47	42	
6	15	31	55	44	
3	15	32	53	53	
3	15	29	38	40	
9	23	35	48	45	
6	16	36	28	45	
7	21	27	38	45	
7	17	37	37	58	
12	20	29	51	50	
7	21	29	52	47	
5	28	35	45	39	
4	22	42	32	52	
10	13	31	27	43	
5	22	48	47	30	
9	23	39	41	53	
5	22	33	39	48	
8	15	35	41	53	
10	15	35	40	42	
7	17	36	41	48	
7	15	32	47	43	
6	17	32	41	40	
12	15	26	36	47	
12	19	26	49	57	
5	21	29	44	60	
7	16	29	39	40	
14	13	46	37	49	
4	19	41	45	41	
5	17	27	40	55	
8	15	30	49	45	
11	18	34	49	37	
11	15	41	44	48	
11	8	22	40	43	
6	14	29	38	48	
8	17	30	39	48	
9	18	33	37	49	
8	18	35	45	37	
10	18	31	48	46	
7	19	25	53	48	
11	16	36	47	51	
5	17	36	39	53	
7	16	25	49	39	
7	20	25	39	52	
3	12	33	40	47	
7	15	25	41	52	
9	25	35	46	49	
7	17	37	52	52	
7	18	36	48	50	
3	13	38	45	58	
5	24	24	40	59	
7	15	37	48	43	
8	17	28	36	47	
4	24	37	42	52	
8	21	34	32	56	
2	15	30	40	50	
10	18	33	51	46	
7	20	36	42	55	
11	20	39	52	42	
4	19	40	37	54	
6	19	36	58	55	
4	21	21	42	53	
5	23	21	39	45	
12	20	31	41	40	
10	24	42	47	61	
7	18	39	44	50	
8	26	39	48	50	
6	16	38	35	55	
4	15	45	37	50	
4	14	41	37	53	
9	26	32	40	44	
4	15	20	47	51	
7	20	25	53	49	
12	23	37	32	41	
6	20	33	39	61	
6	15	39	39	51	
6	17	36	42	58	
9	18	33	48	48	
5	18	31	39	48	
8	15	45	37	43	
9	11	32	35	39	
5	18	32	38	51	
6	20	35	36	55	
8	20	40	44	55	
6	23	28	57	54	
9	22	17	37	47	
4	17	23	41	51	
10	10	39	34	44	
9	16	34	43	50	
7	14	38	49	35	
2	16	32	34	54	
7	20	35	41	35	
9	18	28	30	40	
8	18	37	54	49	
4	20	33	43	52	
10	15	26	46	46	
5	19	31	37	45	
6	17	31	33	50	
2	13	40	46	43	
6	17	36	43	53	
3	22	40	41	51	
10	5	29	50	42	
4	12	33	34	40	
3	15	38	49	58	
10	15	33	38	57	
8	16	40	33	50	
4	11	30	48	51	
4	10	39	44	51	
8	19	34	46	39	
3	14	32	31	45	
5	14	39	40	49	
9	13	20	40	45	
11	19	29	38	47	
11	19	28	49	45	
5	15	34	41	60	
7	13	46	48	60	
7	15	34	53	46	
8	18	38	35	41	
5	15	28	35	62	
6	11	39	55	43	
5	18	26	35	55	
7	15	29	39	53	
7	10	36	49	46	
4	18	29	62	40	
5	19	38	26	46	
5	25	32	47	51	
1	20	31	39	40	
11	20	34	44	46	
7	12	40	40	49	
4	20	37	58	54	
5	15	35	45	49	
8	13	36	36	49	
10	11	31	50	54	
6	27	32	46	54	
7	15	24	32	43	
6	11	37	47	42	
3	16	26	49	54	
9	14	41	50	44	
10	21	32	45	34	
8	13	33	48	51	
10	21	31	49	45	
9	14	39	38	46	
10	18	25	50	49	
11	14	28	64	40	
8	20	29	38	39	
8	15	28	36	38	
7	19	30	43	46	
10	19	40	41	52	
8	15	23	34	48	
5	13	31	45	37	
3	18	30	47	37	
3	24	34	52	43	
9	17	37	44	42	
8	17	24	36	48	
7	20	38	41	64	
12	17	32	49	44	
12	18	33	42	53	
6	14	41	41	51	
7	19	35	41	38	
7	9	33	42	43	
8	17	33	39	45	
3	14	37	39	54	
10	26	28	41	51	
8	16	26	53	39	
8	15	30	50	33	
10	14	32	48	55	
7	14	32	39	47	
6	16	31	53	47	
7	14	31	42	56	
7	12	27	34	48	
8	14	34	42	54	
10	23	31	52	41	
5	11	35	41	39	
2	15	33	36	41	
2	24	21	42	51	
4	19	21	42	49	
9	20	24	43	42	
8	18	26	45	46	
13	8	41	46	55	
9	21	28	41	54	
6	14	27	53	45	
4	10	33	47	49	
7	14	31	42	52	
3	16	32	48	50	
8	14	21	49	37	
6	11	40	23	43	
10	16	38	40	50	
9	17	27	48	39	
7	17	32	43	45	
8	25	35	46	41	
7	14	27	49	49	
5	11	34	37	49	
8	20	37	45	42	
1	22	33	33	52	
6	17	35	44	47	
4	16	31	40	71	
7	20	38	36	47	
3	13	37	33	57	
12	13	29	34	59	
8	14	30	38	53	
6	14	35	42	54	
6	9	31	42	43	
11	23	29	54	54	
6	15	27	44	45	
8	30	27	36	53	
6	15	26	38	64	
8	6	34	48	48	
7	12	35	46	32	
9	19	38	51	45	
5	17	33	40	58	
6	16	36	52	43	
2	14	30	44	34	
6	14	38	43	68	
9	11	43	38	47	
6	17	27	50	36	
2	14	34	46	47	
4	14	28	38	54	
5	14	35	44	38	
6	11	31	45	55	
4	15	33	40	37	
7	12	27	40	46	
4	17	26	40	57	
5	27	31	32	48	
10	14	34	41	43	
10	12	29	45	43	
8	17	23	40	50	
6	10	24	51	61	
5	17	26	35	51	
8	11	35	49	35	
9	11	25	46	47	
10	16	27	45	39	
7	21	26	45	55	
8	14	22	48	43	
6	11	25	37	44	
3	21	21	42	39	
8	16	38	55	48	
6	18	38	48	41	
6	19	30	54	49	
6	15	29	39	52	
6	13	34	42	40	
8	25	32	48	46	
4	11	32	41	35	
7	16	30	44	43	
6	13	30	52	48	
7	10	19	49	50	
6	15	43	41	47	
5	15	31	51	40	
4	17	22	39	54	
7	17	21	47	41	
8	13	35	42	50	
10	15	29	39	35	
6	10	41	46	38	
8	18	28	41	55	
3	18	28	34	55	
8	8	25	48	45	
3	17	30	43	43	
5	25	28	47	50	
6	21	29	43	51	
5	15	23	39	51	
3	15	26	43	55	
6	19	29	44	52	
7	17	25	47	43	
7	12	36	39	47	
5	17	27	48	51	
8	25	19	41	59	
14	14	32	43	38	
3	12	33	46	36	
6	20	24	36	56	
8	15	31	32	41	
6	10	24	35	51	
3	20	22	43	36	
4	11	37	48	49	
4	18	26	41	35	
8	8	26	49	60	
3	21	28	50	50	
1	12	25	40	45	
6	25	28	32	51	
3	27	32	40	49	
8	13	36	32	48	
12	10	35	38	56	
7	19	22	41	51	
6	12	30	36	51	
6	17	32	49	47	
6	19	25	43	51	
9	19	21	36	32	
6	15	36	43	38	
5	9	31	38	39	
2	17	33	44	44	
4	15	29	31	51	
3	14	33	44	59	
8	21	22	45	64	
12	7	18	38	56	
9	14	29	42	56	
4	15	24	43	53	
4	10	24	39	43	
2	17	34	50	44	
9	11	29	44	54	
6	24	32	39	41	
4	14	32	54	54	
7	21	39	44	47	
7	14	24	42	65	
7	16	30	36	49	
5	19	26	53	45	
6	15	28	48	43	
8	16	24	44	56	
8	14	24	46	36	
5	14	25	43	55	
6	13	28	50	48	
7	10	36	45	39	
3	19	21	37	46	
4	8	30	37	45	
8	17	29	31	54	
10	17	22	49	64	
7	12	36	42	56	
4	18	42	45	47	
6	10	40	44	43	
9	18	25	50	51	
7	13	29	44	36	
6	13	27	48	35	
4	11	28	50	48	
6	10	25	33	43	
4	21	36	39	47	
4	6	30	55	44	
6	12	37	39	46	
6	9	28	41	47	
6	15	41	41	49	
10	19	30	40	51	
5	12	26	39	38	
6	6	28	34	53	
7	19	39	45	45	
8	25	25	35	44	
3	14	19	47	46	
5	14	22	43	51	
3	10	27	45	44	
5	19	27	45	41	
6	23	30	39	48	
6	15	37	42	55	
6	23	28	41	44	
5	12	24	40	35	
5	14	30	29	50	
3	17	29	35	44	
7	20	30	37	55	
7	17	30	53	39	
6	19	31	47	40	
5	19	34	43	45	
5	11	27	33	46	
6	17	18	47	60	
5	13	22	36	64	
7	8	31	43	46	
6	8	26	46	52	
6	16	29	36	51	
8	17	24	51	38	
9	20	34	42	47	
9	17	29	44	42	
3	13	31	42	52	
5	11	38	41	31	
6	7	34	39	44	
3	21	25	52	54	
6	15	30	41	59	
5	17	26	45	25	
4	8	25	40	49	
4	11	26	39	40	
7	16	22	52	59	
6	19	31	38	49	
5	13	38	46	46	
9	17	32	43	45	
7	23	25	29	50	
5	9	32	42	42	
4	19	35	44	59	
3	14	26	44	42	
1	11	28	46	49	
4	11	34	39	62	
3	12	33	29	49	
6	18	30	50	47	
1	9	34	35	42	
4	11	26	48	46	
5	17	24	37	49	
2	16	29	41	61	
0	13	30	37	38	
5	19	28	50	44	
4	16	27	46	46	
4	14	26	44	50	
6	17	32	42	38	
6	8	24	30	50	
6	15	20	41	43	
6	15	23	60	46	
6	12	27	44	51	
2	13	31	52	46	
5	10	29	44	41	
4	10	26	32	62	
8	20	33	47	41	
6	12	32	41	41	
8	23	19	49	52	
9	12	33	42	56	
4	13	20	33	42	
5	10	27	39	50	
5	6	26	48	45	
12	20	32	39	46	
4	14	38	49	51	
4	21	27	44	49	
4	14	43	40	54	
8	14	28	41	41	
5	13	29	32	38	
4	21	28	41	55	
5	7	28	48	53	
7	15	33	29	58	
2	12	27	38	52	
5	6	26	42	33	
5	13	27	34	44	
3	13	25	41	42	
4	16	26	36	49	
7	10	34	51	44	
2	11	34	51	38	
7	12	26	26	56	
6	21	27	43	43	
6	7	23	43	43	
4	12	31	47	36	
5	17	23	36	36	
4	10	37	40	38	
4	14	35	39	45	
6	16	25	40	56	
8	10	25	33	60	
8	18	32	25	48	
10	17	18	47	52	
3	17	26	40	47	
4	14	28	45	52	
7	13	26	29	45	
4	19	30	42	50	
9	10	30	28	40	
10	14	33	39	42	
7	13	34	44	47	
5	18	33	37	48	
2	7	26	37	40	
6	14	33	41	50	
5	13	24	43	39	
5	17	22	37	56	
0	10	32	43	40	
8	12	28	36	48	
6	17	24	39	41	
6	17	26	32	50	
7	14	25	39	47	
4	17	25	46	53	
7	10	27	48	43	
4	12	29	42	40	
5	14	31	37	39	
2	21	20	39	52	
5	14	26	45	58	
8	18	22	37	48	
5	14	24	25	44	
4	19	22	44	49	
8	11	39	39	41	
7	11	22	38	46	
3	15	38	39	45	
5	12	28	30	43	
1	13	41	47	46	
2	10	30	32	45	
7	16	28	39	46	
3	16	31	34	45	
4	19	24	39	50	
5	7	19	32	42	
4	8	29	44	50	
3	16	30	37	51	
6	13	37	46	49	
6	9	30	42	46	
6	10	32	38	43	
12	18	30	39	52	
5	16	23	37	53	
8	6	22	28	43	
7	11	22	35	53	
7	13	32	29	33	
7	14	28	41	41	
4	11	26	46	57	
6	13	31	40	47	
8	8	29	36	38	
11	13	25	48	50	
5	12	24	43	52	
6	12	25	43	52	
5	12	26	34	45	
7	10	22	47	45	
5	24	10	48	45	
2	16	24	34	48	
5	9	26	41	51	
4	12	24	39	53	
4	10	20	44	49	
3	14	17	51	50	
6	12	31	38	42	
2	13	25	43	47	
8	14	31	39	52	
4	16	25	54	44	
4	9	34	40	45	
4	17	28	40	51	
6	9	22	45	36	
6	13	36	45	53	
10	10	27	45	39	
7	17	31	36	39	
8	17	28	40	57	
6	19	31	49	50	
3	12	24	34	52	
4	7	31	44	38	
10	18	37	34	41	
5	12	27	37	57	
4	13	30	36	43	
6	20	18	38	45	
4	9	30	49	32	
7	15	20	36	56	
6	8	27	29	39	
7	10	28	46	47	
9	11	22	30	47	
8	14	21	27	43	
3	17	26	39	50	
2	11	28	39	51	
