#PicoHarp 300  Histogram Data			04/20/2022 03:56:22 PM
#channels per curve
31250
#display curve no.
0	
#memory block no.
0	
#ns/channel
0.0320	
#counts
2	
5	
1	
5	
4	
0	
1	
1	
3	
5	
4	
1	
0	
3	
1	
1	
2	
1	
0	
4	
5	
2	
1	
6	
2	
2	
3	
1	
3	
3	
3	
1	
3	
3	
1	
3	
1	
3	
0	
1	
2	
1	
2	
3	
3	
0	
3	
2	
4	
1	
6	
3	
5	
3	
2	
2	
2	
0	
2	
2	
2	
1	
0	
2	
3	
2	
3	
1	
4	
3	
4	
1	
0	
3	
1	
4	
5	
5	
3	
4	
2	
3	
3	
2	
2	
4	
1	
1	
1	
3	
2	
2	
1	
2	
4	
2	
2	
2	
5	
2	
4	
0	
7	
1	
1	
1	
2	
1	
3	
2	
1	
1	
0	
3	
5	
4	
2	
1	
1	
1	
3	
1	
4	
3	
0	
2	
2	
1	
1	
5	
2	
3	
1	
4	
1	
1	
0	
1	
4	
0	
5	
1	
2	
2	
3	
3	
0	
4	
2	
2	
4	
1	
6	
3	
7	
0	
3	
3	
2	
2	
3	
1	
4	
3	
0	
2	
1	
5	
4	
2	
2	
3	
2	
2	
1	
4	
2	
3	
2	
2	
5	
1	
2	
3	
1	
2	
0	
3	
1	
1	
1	
3	
3	
3	
1	
1	
6	
1	
0	
0	
2	
1	
2	
1	
3	
2	
2	
0	
7	
3	
1	
1	
2	
3	
4	
2	
5	
0	
0	
0	
3	
2	
3	
0	
1	
2	
3	
2	
2	
0	
2	
2	
2	
3	
3	
4	
2	
5	
3	
3	
5	
2	
0	
4	
3	
0	
3	
3	
3	
1	
1	
0	
1	
2	
3	
2	
5	
1	
3	
2	
2	
2	
2	
2	
1	
4	
0	
1	
0	
7	
0	
3	
4	
3	
4	
0	
0	
4	
3	
2	
2	
3	
2	
5	
2	
5	
2	
2	
2	
2	
2	
6	
3	
2	
1	
0	
4	
0	
1	
5	
3	
1	
2	
2	
3	
3	
2	
2	
1	
1	
4	
4	
0	
0	
4	
5	
2	
1	
2	
2	
1	
3	
0	
0	
2	
2	
3	
1	
2	
3	
0	
1	
2	
4	
2	
2	
1	
3	
2	
1	
5	
2	
1	
3	
1	
1	
3	
3	
4	
3	
3	
1	
2	
4	
1	
0	
4	
4	
1	
1	
2	
3	
2	
3	
3	
5	
3	
6	
1	
1	
2	
1	
1	
2	
1	
2	
1	
3	
1	
5	
1	
2	
4	
2	
1	
1	
0	
0	
1	
5	
3	
4	
2	
1	
3	
2	
0	
2	
1	
3	
1	
2	
0	
2	
2	
0	
4	
1	
3	
1	
3	
1	
2	
1	
2	
2	
2	
4	
0	
2	
2	
3	
4	
1	
3	
3	
2	
3	
2	
5	
7	
3	
1	
2	
1	
4	
3	
4	
2	
0	
4	
0	
2	
2	
1	
2	
2	
4	
3	
2	
5	
3	
2	
2	
0	
3	
3	
6	
0	
1	
1	
4	
3	
2	
1	
4	
4	
2	
0	
4	
1	
4	
2	
1	
3	
2	
5	
4	
3	
2	
0	
0	
4	
0	
2	
4	
2	
1	
0	
2	
4	
2	
2	
1	
3	
3	
2	
0	
0	
5	
1	
1	
0	
4	
1	
2	
1	
0	
1	
0	
3	
0	
4	
2	
1	
2	
5	
1	
2	
2	
3	
2	
2	
3	
0	
5	
1	
1	
3	
3	
5	
2	
0	
0	
2	
2	
1	
1	
5	
1	
3	
2	
1	
4	
1	
1	
1	
2	
1	
1	
2	
6	
2	
1	
4	
1	
2	
0	
4	
4	
1	
2	
2	
2	
3	
2	
2	
1	
2	
1	
0	
4	
2	
3	
2	
0	
3	
2	
0	
1	
3	
0	
2	
3	
1	
0	
5	
1	
0	
2	
4	
0	
0	
0	
0	
2	
0	
1	
2	
4	
0	
6	
3	
0	
1	
1	
4	
2	
1	
1	
1	
3	
1	
1	
2	
5	
3	
0	
3	
2	
3	
2	
2	
1	
4	
3	
1	
3	
3	
5	
0	
1	
3	
1	
1	
2	
2	
1	
1	
3	
3	
3	
2	
5	
1	
1	
3	
2	
2	
2	
4	
0	
4	
2	
3	
6	
1	
3	
1	
2	
1	
4	
5	
3	
3	
3	
3	
2	
3	
1	
2	
4	
3	
1	
3	
2	
2	
1	
6	
0	
1	
1	
4	
0	
2	
2	
3	
4	
4	
1	
3	
3	
1	
1	
0	
3	
1	
2	
2	
1	
1	
0	
1	
3	
3	
2	
0	
3	
5	
4	
5	
2	
2	
1	
4	
3	
2	
2	
3	
1	
1	
2	
1	
1	
6	
1	
1	
3	
6	
2	
0	
2	
2	
5	
2	
2	
0	
1	
2	
2	
3	
3	
2	
2	
5	
1	
1	
3	
1	
5	
3	
2	
0	
1	
2	
1	
4	
1	
7	
7	
4	
1	
2	
3	
5	
1	
1	
3	
1	
1	
1	
4	
1	
5	
0	
4	
3	
1	
0	
4	
1	
1	
2	
1	
2	
4	
1	
2	
2	
2	
3	
3	
2	
1	
3	
3	
3	
1	
2	
3	
2	
1	
2	
1	
1	
3	
2	
1	
2	
3	
3	
1	
0	
0	
1	
4	
2	
2	
5	
1	
1	
8	
3	
2	
5	
3	
2	
2	
1	
3	
3	
2	
3	
3	
1	
2	
1	
2	
1	
2	
1	
2	
1	
1	
1	
5	
1	
2	
0	
1	
3	
2	
1	
0	
0	
4	
2	
2	
3	
4	
5	
5	
1	
3	
0	
2	
1	
3	
2	
1	
3	
3	
1	
1	
1	
0	
3	
4	
3	
2	
3	
2	
2	
1	
1	
1	
1	
0	
2	
0	
2	
1	
1	
3	
2	
1	
3	
1	
1	
3	
2	
0	
4	
1	
3	
1	
3	
2	
0	
1	
3	
3	
1	
1	
2	
1	
3	
0	
3	
4	
1	
1	
2	
1	
3	
1	
4	
3	
3	
3	
4	
3	
5	
3	
2	
2	
0	
3	
1	
1	
5	
1	
3	
2	
2	
0	
3	
4	
0	
3	
4	
0	
2	
2	
0	
5	
2	
5	
4	
2	
3	
1	
2	
2	
1	
3	
1	
4	
3	
3	
4	
2	
5	
6	
7	
5	
10	
7	
8	
11	
10	
7	
6	
11	
18	
16	
20	
33	
27	
30	
42	
50	
44	
38	
64	
56	
75	
65	
72	
80	
62	
91	
98	
112	
114	
109	
103	
96	
115	
134	
143	
126	
139	
137	
115	
140	
129	
125	
126	
134	
128	
131	
120	
137	
151	
144	
146	
150	
159	
131	
136	
147	
153	
167	
143	
168	
170	
155	
160	
156	
123	
159	
152	
165	
147	
169	
142	
156	
163	
155	
154	
165	
150	
133	
149	
151	
150	
154	
145	
139	
157	
160	
136	
120	
156	
165	
156	
165	
154	
160	
138	
139	
145	
152	
145	
154	
156	
162	
130	
146	
149	
152	
137	
152	
157	
165	
164	
158	
132	
147	
152	
156	
174	
160	
176	
154	
149	
153	
131	
157	
160	
161	
152	
143	
197	
149	
154	
127	
146	
117	
172	
156	
164	
146	
145	
152	
141	
133	
154	
130	
146	
134	
144	
148	
145	
154	
140	
145	
148	
138	
123	
152	
141	
152	
158	
136	
150	
139	
159	
146	
140	
154	
149	
136	
145	
123	
130	
142	
160	
126	
152	
175	
162	
152	
147	
156	
153	
121	
132	
138	
146	
134	
142	
146	
169	
126	
121	
127	
156	
149	
127	
162	
141	
145	
151	
148	
136	
142	
140	
166	
132	
143	
153	
150	
151	
133	
140	
149	
135	
154	
144	
160	
132	
140	
131	
139	
156	
140	
134	
159	
160	
137	
157	
137	
135	
139	
156	
124	
134	
147	
112	
143	
125	
142	
136	
139	
148	
129	
158	
151	
156	
143	
129	
135	
134	
136	
129	
141	
149	
121	
135	
147	
166	
120	
136	
132	
127	
156	
141	
141	
150	
126	
138	
115	
156	
109	
141	
135	
133	
126	
145	
138	
139	
137	
144	
156	
111	
135	
136	
140	
138	
123	
149	
128	
144	
141	
128	
134	
120	
138	
128	
146	
150	
145	
124	
121	
130	
135	
128	
127	
130	
136	
149	
135	
130	
144	
137	
138	
138	
144	
138	
134	
140	
121	
147	
143	
142	
126	
121	
128	
129	
148	
122	
145	
123	
101	
137	
130	
124	
130	
122	
147	
120	
134	
134	
135	
143	
133	
144	
117	
143	
141	
123	
134	
153	
154	
143	
121	
125	
116	
116	
116	
128	
141	
143	
153	
147	
132	
136	
125	
133	
130	
116	
128	
128	
118	
126	
121	
136	
131	
124	
116	
139	
130	
137	
169	
140	
141	
138	
130	
138	
146	
128	
120	
143	
125	
154	
115	
137	
130	
128	
148	
127	
136	
111	
147	
117	
130	
113	
155	
130	
122	
116	
126	
127	
140	
144	
143	
116	
118	
127	
134	
127	
130	
122	
130	
126	
141	
121	
114	
120	
106	
109	
128	
146	
102	
113	
122	
151	
127	
120	
118	
135	
128	
133	
132	
135	
105	
114	
123	
94	
117	
136	
137	
118	
115	
122	
113	
140	
114	
130	
126	
146	
122	
122	
124	
111	
155	
118	
128	
107	
127	
113	
120	
150	
115	
121	
145	
119	
133	
118	
128	
118	
103	
151	
128	
134	
118	
127	
127	
115	
140	
121	
130	
110	
123	
142	
124	
139	
131	
111	
118	
109	
128	
144	
122	
116	
123	
109	
103	
137	
135	
111	
106	
113	
117	
130	
106	
117	
121	
99	
120	
129	
117	
113	
117	
139	
118	
118	
114	
132	
122	
110	
121	
108	
135	
118	
120	
93	
132	
126	
119	
123	
140	
118	
122	
127	
113	
119	
131	
116	
120	
127	
112	
115	
121	
130	
100	
113	
118	
114	
137	
137	
121	
115	
121	
128	
95	
137	
109	
122	
134	
121	
128	
113	
139	
124	
134	
102	
125	
129	
126	
124	
118	
129	
113	
113	
120	
123	
125	
125	
101	
117	
120	
133	
109	
115	
133	
125	
102	
112	
127	
115	
106	
119	
130	
127	
118	
100	
123	
132	
105	
106	
119	
122	
134	
121	
124	
133	
119	
111	
116	
120	
112	
114	
129	
124	
103	
132	
140	
120	
129	
124	
112	
131	
120	
116	
113	
127	
125	
112	
133	
108	
133	
121	
109	
125	
126	
125	
119	
112	
113	
100	
124	
116	
120	
109	
121	
110	
108	
122	
121	
98	
127	
118	
124	
126	
111	
113	
116	
113	
126	
99	
127	
113	
115	
108	
113	
131	
106	
108	
110	
135	
107	
123	
112	
128	
111	
115	
108	
103	
123	
135	
102	
111	
109	
129	
114	
111	
118	
125	
110	
122	
107	
109	
118	
120	
120	
112	
117	
115	
117	
119	
99	
116	
112	
105	
122	
124	
121	
121	
115	
109	
106	
104	
128	
129	
121	
115	
127	
110	
106	
132	
118	
123	
124	
115	
125	
94	
112	
125	
134	
97	
120	
129	
123	
113	
112	
119	
106	
107	
111	
135	
118	
128	
98	
125	
88	
116	
124	
103	
88	
118	
94	
121	
106	
107	
105	
94	
121	
113	
128	
102	
117	
101	
115	
108	
129	
108	
98	
119	
121	
113	
113	
90	
116	
126	
109	
116	
105	
114	
106	
101	
105	
102	
112	
111	
119	
96	
95	
117	
106	
114	
94	
105	
103	
118	
109	
121	
100	
126	
123	
89	
98	
115	
124	
84	
129	
90	
114	
109	
103	
103	
102	
110	
114	
106	
102	
110	
103	
106	
108	
118	
115	
130	
121	
111	
111	
133	
115	
89	
121	
114	
92	
105	
105	
106	
112	
112	
107	
120	
102	
107	
104	
109	
132	
101	
97	
96	
124	
105	
97	
102	
111	
108	
104	
118	
93	
118	
88	
82	
96	
107	
116	
114	
107	
108	
114	
110	
113	
115	
99	
95	
100	
106	
114	
102	
105	
100	
96	
96	
112	
118	
108	
110	
115	
116	
119	
99	
96	
118	
108	
92	
108	
86	
104	
87	
104	
114	
111	
112	
115	
100	
105	
97	
122	
94	
103	
111	
110	
125	
105	
106	
128	
109	
131	
100	
109	
113	
103	
110	
97	
109	
106	
92	
126	
102	
122	
103	
112	
101	
86	
108	
113	
97	
103	
100	
91	
98	
100	
103	
121	
112	
99	
95	
95	
98	
90	
89	
82	
94	
99	
107	
116	
96	
100	
107	
109	
112	
92	
107	
107	
107	
86	
112	
110	
101	
121	
96	
101	
98	
100	
102	
107	
107	
104	
101	
110	
104	
97	
106	
120	
94	
95	
132	
107	
110	
95	
99	
94	
102	
100	
90	
107	
119	
115	
92	
106	
114	
91	
98	
106	
111	
91	
108	
98	
123	
97	
117	
95	
108	
92	
103	
98	
92	
93	
115	
111	
117	
116	
105	
117	
95	
91	
86	
94	
121	
95	
108	
106	
94	
120	
98	
89	
108	
110	
104	
114	
101	
115	
111	
104	
92	
115	
110	
104	
97	
101	
96	
107	
100	
110	
90	
90	
84	
97	
129	
111	
90	
97	
105	
86	
94	
97	
101	
98	
102	
115	
98	
102	
96	
106	
99	
97	
96	
95	
91	
118	
96	
103	
81	
101	
106	
90	
95	
95	
99	
100	
83	
112	
92	
110	
98	
85	
81	
102	
106	
86	
106	
103	
87	
98	
107	
102	
91	
88	
98	
110	
97	
101	
89	
111	
100	
109	
100	
89	
101	
100	
93	
119	
101	
86	
104	
95	
94	
93	
107	
84	
96	
99	
100	
107	
97	
95	
79	
82	
90	
98	
85	
101	
89	
91	
102	
105	
103	
98	
90	
94	
87	
79	
93	
81	
91	
96	
104	
98	
98	
85	
90	
97	
104	
89	
88	
91	
94	
89	
106	
98	
84	
96	
105	
85	
108	
98	
118	
107	
108	
83	
101	
97	
97	
95	
112	
88	
110	
112	
80	
104	
105	
86	
115	
100	
87	
101	
99	
82	
119	
91	
97	
101	
91	
92	
90	
104	
99	
106	
110	
101	
96	
90	
118	
98	
107	
96	
81	
102	
99	
96	
91	
98	
112	
101	
94	
90	
87	
92	
109	
94	
101	
96	
87	
94	
90	
124	
98	
95	
87	
97	
99	
89	
100	
94	
95	
93	
91	
96	
115	
98	
86	
86	
93	
93	
85	
99	
97	
85	
97	
86	
110	
87	
86	
105	
89	
102	
100	
82	
80	
99	
79	
101	
85	
88	
87	
90	
85	
98	
79	
84	
92	
99	
102	
90	
100	
94	
89	
86	
108	
99	
81	
108	
92	
83	
100	
88	
91	
92	
97	
89	
94	
82	
107	
92	
88	
106	
84	
85	
95	
96	
103	
102	
93	
87	
117	
92	
99	
116	
109	
90	
92	
103	
81	
106	
79	
82	
89	
95	
102	
76	
82	
86	
102	
99	
87	
88	
87	
87	
79	
91	
98	
83	
83	
84	
86	
74	
95	
84	
84	
87	
84	
73	
89	
96	
100	
81	
89	
94	
82	
87	
117	
81	
86	
93	
92	
67	
80	
83	
84	
89	
72	
84	
96	
104	
94	
100	
90	
76	
86	
92	
80	
86	
67	
89	
95	
101	
79	
100	
97	
99	
71	
116	
79	
86	
95	
96	
86	
92	
96	
71	
112	
100	
99	
87	
89	
93	
76	
100	
85	
103	
103	
71	
87	
74	
100	
91	
89	
74	
108	
77	
82	
108	
85	
99	
91	
82	
105	
77	
99	
79	
100	
93	
108	
87	
79	
78	
93	
92	
89	
94	
103	
101	
99	
88	
90	
107	
87	
93	
97	
87	
92	
101	
90	
93	
81	
98	
100	
104	
82	
80	
78	
76	
79	
92	
89	
81	
98	
83	
91	
86	
85	
97	
84	
108	
100	
91	
86	
71	
82	
77	
91	
89	
81	
93	
85	
97	
85	
93	
91	
85	
92	
88	
89	
87	
89	
92	
92	
92	
98	
97	
82	
118	
101	
94	
82	
80	
97	
89	
91	
71	
85	
81	
97	
92	
88	
114	
73	
95	
83	
84	
87	
81	
92	
69	
87	
94	
60	
82	
85	
87	
76	
81	
84	
90	
72	
80	
83	
88	
93	
81	
82	
89	
96	
84	
75	
80	
97	
90	
94	
66	
75	
97	
80	
94	
89	
84	
81	
85	
85	
83	
80	
95	
87	
81	
73	
85	
87	
74	
89	
96	
83	
78	
73	
84	
69	
85	
88	
80	
89	
101	
90	
94	
90	
74	
92	
98	
91	
80	
91	
83	
77	
75	
84	
86	
70	
86	
102	
89	
75	
91	
99	
87	
79	
88	
90	
83	
104	
84	
88	
89	
81	
80	
72	
82	
91	
74	
84	
78	
73	
88	
75	
82	
62	
77	
89	
67	
74	
74	
67	
97	
87	
90	
89	
98	
87	
74	
73	
80	
69	
84	
77	
85	
85	
86	
72	
94	
90	
81	
97	
93	
80	
95	
85	
93	
76	
79	
90	
75	
80	
95	
78	
85	
68	
78	
83	
85	
89	
76	
88	
70	
69	
84	
89	
87	
93	
83	
68	
76	
81	
105	
91	
91	
85	
96	
83	
72	
82	
74	
78	
91	
92	
97	
88	
79	
84	
75	
90	
87	
88	
89	
84	
68	
78	
73	
71	
76	
88	
69	
89	
102	
104	
83	
59	
80	
70	
84	
79	
72	
103	
83	
94	
77	
78	
67	
77	
79	
80	
70	
76	
88	
93	
74	
87	
78	
87	
61	
85	
68	
84	
82	
81	
79	
93	
85	
77	
78	
87	
92	
76	
85	
86	
77	
90	
85	
63	
75	
99	
89	
57	
69	
77	
84	
90	
75	
72	
75	
87	
88	
70	
102	
85	
81	
79	
84	
91	
77	
91	
84	
73	
78	
82	
85	
74	
78	
86	
77	
62	
101	
62	
74	
66	
91	
63	
82	
69	
71	
70	
73	
79	
73	
73	
77	
74	
78	
68	
90	
80	
84	
82	
70	
83	
73	
61	
86	
79	
74	
81	
78	
85	
80	
70	
64	
60	
88	
76	
66	
101	
70	
82	
67	
82	
65	
93	
59	
71	
68	
94	
86	
71	
81	
73	
80	
78	
81	
64	
72	
79	
81	
79	
81	
81	
77	
91	
91	
79	
74	
66	
75	
73	
69	
64	
61	
85	
85	
72	
73	
76	
74	
86	
69	
62	
83	
78	
65	
72	
70	
84	
73	
81	
75	
72	
78	
70	
63	
78	
84	
66	
77	
81	
67	
87	
89	
94	
84	
79	
86	
100	
96	
69	
83	
84	
88	
83	
76	
71	
79	
71	
68	
72	
78	
72	
59	
72	
85	
87	
67	
86	
70	
74	
71	
70	
62	
78	
71	
84	
89	
89	
79	
66	
72	
68	
77	
78	
77	
72	
86	
98	
81	
81	
76	
76	
64	
93	
67	
84	
79	
83	
78	
64	
77	
69	
69	
86	
77	
64	
69	
76	
73	
64	
81	
72	
83	
78	
84	
82	
70	
63	
83	
76	
75	
70	
71	
84	
70	
65	
79	
62	
74	
75	
76	
62	
67	
60	
84	
86	
58	
85	
92	
67	
80	
69	
70	
70	
81	
73	
75	
77	
63	
82	
80	
69	
72	
57	
92	
78	
95	
76	
72	
74	
72	
68	
80	
80	
70	
72	
72	
85	
70	
89	
66	
69	
85	
71	
86	
69	
76	
53	
82	
79	
59	
57	
76	
66	
66	
75	
75	
83	
71	
65	
69	
92	
67	
74	
83	
66	
82	
68	
58	
50	
73	
73	
67	
85	
72	
73	
81	
71	
79	
63	
74	
66	
80	
85	
64	
74	
68	
72	
61	
77	
69	
74	
72	
65	
91	
75	
67	
62	
84	
78	
92	
71	
83	
76	
79	
67	
65	
75	
58	
83	
69	
60	
62	
73	
68	
81	
71	
79	
60	
85	
60	
81	
75	
68	
70	
64	
74	
64	
55	
65	
61	
74	
60	
59	
74	
75	
59	
76	
59	
69	
76	
81	
65	
65	
67	
63	
67	
67	
67	
58	
66	
75	
71	
60	
70	
75	
62	
76	
73	
69	
76	
65	
68	
58	
74	
63	
80	
67	
65	
60	
68	
63	
70	
53	
65	
68	
76	
76	
78	
78	
77	
80	
57	
63	
73	
63	
73	
67	
67	
74	
84	
69	
70	
68	
58	
65	
59	
68	
62	
83	
79	
65	
76	
57	
63	
79	
80	
90	
70	
57	
67	
83	
55	
65	
90	
67	
71	
69	
72	
80	
69	
70	
61	
71	
63	
80	
69	
55	
63	
69	
76	
65	
66	
84	
71	
75	
73	
67	
85	
89	
64	
62	
64	
77	
79	
72	
56	
81	
65	
86	
66	
74	
82	
86	
80	
59	
80	
70	
67	
63	
63	
77	
62	
71	
54	
55	
53	
64	
58	
69	
71	
64	
86	
73	
74	
77	
75	
67	
62	
64	
69	
59	
70	
62	
89	
70	
65	
79	
81	
60	
70	
80	
69	
74	
64	
93	
70	
67	
68	
75	
67	
80	
79	
74	
61	
79	
67	
75	
67	
67	
71	
63	
74	
86	
79	
71	
71	
71	
75	
74	
54	
74	
62	
78	
70	
75	
71	
58	
65	
72	
87	
56	
68	
67	
68	
73	
78	
85	
58	
57	
68	
77	
66	
58	
63	
62	
83	
67	
74	
66	
73	
70	
73	
67	
74	
72	
79	
55	
66	
80	
70	
69	
72	
65	
63	
68	
58	
60	
64	
82	
76	
74	
74	
56	
70	
63	
78	
51	
62	
73	
66	
67	
54	
71	
60	
62	
60	
63	
71	
61	
71	
77	
57	
62	
79	
60	
62	
71	
71	
74	
70	
73	
76	
69	
58	
67	
48	
66	
81	
60	
54	
64	
64	
62	
60	
59	
68	
66	
69	
74	
82	
56	
84	
67	
76	
61	
57	
68	
69	
63	
54	
58	
81	
66	
71	
77	
56	
69	
64	
72	
81	
70	
70	
65	
75	
60	
71	
55	
51	
77	
57	
64	
63	
59	
70	
61	
52	
72	
61	
68	
69	
61	
74	
71	
48	
75	
80	
68	
71	
65	
62	
59	
58	
72	
65	
76	
96	
67	
67	
70	
50	
66	
65	
64	
71	
57	
63	
65	
52	
60	
54	
59	
51	
58	
69	
53	
61	
61	
70	
68	
53	
59	
60	
68	
69	
61	
59	
58	
76	
59	
59	
68	
65	
74	
71	
65	
64	
80	
67	
79	
61	
73	
58	
59	
61	
72	
74	
61	
68	
62	
58	
57	
60	
63	
70	
78	
60	
71	
81	
59	
65	
61	
65	
69	
58	
65	
57	
48	
65	
62	
57	
60	
65	
55	
47	
70	
56	
67	
61	
65	
67	
44	
62	
57	
55	
71	
70	
60	
46	
70	
58	
68	
64	
67	
65	
72	
65	
66	
67	
65	
60	
79	
61	
58	
76	
56	
74	
59	
58	
81	
86	
58	
55	
62	
64	
70	
62	
74	
66	
52	
50	
62	
65	
73	
60	
63	
77	
54	
71	
72	
60	
66	
54	
69	
76	
56	
81	
58	
71	
59	
79	
62	
63	
60	
71	
59	
74	
61	
63	
64	
65	
58	
72	
53	
48	
58	
61	
73	
68	
73	
61	
55	
62	
56	
52	
71	
65	
64	
62	
55	
54	
62	
69	
71	
66	
61	
73	
62	
61	
61	
69	
55	
74	
72	
65	
65	
54	
48	
58	
66	
74	
60	
56	
63	
58	
63	
66	
73	
48	
59	
55	
56	
54	
75	
61	
55	
58	
42	
58	
54	
51	
73	
68	
63	
62	
69	
56	
69	
57	
67	
73	
55	
66	
54	
62	
67	
74	
49	
59	
62	
73	
58	
57	
60	
67	
70	
66	
56	
71	
49	
57	
72	
76	
76	
50	
60	
69	
76	
69	
51	
57	
66	
54	
79	
48	
64	
66	
63	
56	
60	
66	
55	
52	
53	
57	
66	
71	
49	
55	
71	
54	
61	
57	
65	
62	
60	
61	
54	
75	
76	
47	
56	
64	
56	
69	
57	
60	
61	
56	
64	
62	
72	
60	
66	
49	
73	
59	
68	
52	
64	
66	
53	
50	
61	
51	
59	
61	
60	
73	
63	
56	
72	
64	
60	
69	
73	
60	
68	
76	
49	
57	
58	
53	
70	
55	
54	
62	
67	
76	
57	
51	
51	
61	
62	
70	
50	
51	
63	
72	
51	
58	
53	
56	
54	
57	
79	
54	
57	
62	
67	
60	
65	
44	
40	
59	
61	
52	
61	
61	
76	
49	
54	
67	
49	
57	
63	
49	
46	
54	
61	
62	
57	
54	
67	
60	
48	
67	
61	
64	
61	
61	
47	
60	
66	
75	
58	
63	
55	
51	
49	
57	
64	
67	
58	
62	
51	
68	
55	
54	
45	
66	
51	
60	
69	
73	
54	
54	
55	
50	
60	
56	
52	
54	
62	
71	
63	
60	
42	
61	
72	
55	
52	
40	
61	
43	
47	
42	
82	
53	
66	
52	
63	
72	
49	
61	
50	
71	
57	
50	
54	
67	
50	
57	
51	
50	
51	
61	
38	
62	
63	
44	
46	
61	
66	
54	
61	
56	
55	
63	
59	
79	
59	
55	
57	
51	
84	
56	
72	
46	
38	
46	
69	
57	
49	
62	
63	
48	
57	
58	
50	
63	
54	
44	
57	
59	
62	
57	
53	
69	
61	
54	
61	
56	
67	
45	
65	
62	
58	
49	
53	
50	
61	
55	
58	
54	
63	
60	
55	
60	
55	
57	
49	
53	
53	
58	
54	
45	
62	
59	
65	
65	
63	
55	
46	
69	
54	
75	
55	
49	
48	
51	
68	
54	
49	
61	
60	
45	
49	
58	
47	
62	
57	
62	
62	
55	
54	
60	
43	
67	
66	
62	
53	
53	
50	
61	
64	
49	
57	
55	
68	
67	
65	
50	
55	
42	
54	
55	
42	
67	
58	
50	
66	
47	
55	
41	
49	
54	
77	
50	
62	
59	
39	
57	
72	
44	
63	
63	
52	
64	
66	
55	
60	
52	
52	
60	
59	
56	
48	
53	
47	
50	
61	
46	
65	
43	
60	
57	
45	
55	
61	
60	
67	
57	
53	
47	
57	
65	
50	
48	
59	
61	
60	
51	
50	
61	
69	
63	
59	
65	
44	
46	
57	
57	
49	
63	
42	
51	
64	
53	
49	
49	
62	
44	
51	
53	
59	
52	
56	
44	
64	
72	
41	
54	
46	
44	
54	
54	
42	
49	
60	
54	
51	
52	
48	
53	
59	
61	
52	
56	
69	
53	
63	
65	
52	
50	
60	
71	
46	
63	
60	
61	
48	
47	
73	
54	
58	
55	
55	
49	
52	
49	
59	
53	
55	
56	
76	
55	
42	
60	
48	
57	
60	
45	
55	
57	
55	
50	
46	
54	
46	
49	
47	
45	
50	
56	
48	
64	
56	
59	
52	
65	
57	
48	
62	
52	
56	
62	
61	
62	
50	
52	
68	
60	
47	
42	
59	
47	
52	
59	
53	
46	
50	
59	
46	
42	
58	
42	
49	
56	
51	
53	
59	
52	
42	
59	
62	
63	
54	
48	
52	
51	
47	
56	
56	
47	
54	
62	
53	
67	
43	
49	
49	
37	
63	
55	
56	
54	
45	
51	
58	
50	
50	
51	
55	
59	
58	
56	
47	
53	
56	
46	
52	
48	
60	
43	
61	
45	
44	
45	
49	
43	
42	
71	
41	
40	
51	
48	
60	
49	
44	
46	
47	
54	
52	
57	
54	
47	
59	
61	
53	
51	
62	
51	
58	
55	
58	
59	
43	
46	
63	
71	
67	
46	
51	
53	
70	
51	
53	
52	
49	
43	
55	
39	
47	
57	
41	
52	
55	
64	
51	
60	
56	
63	
44	
51	
57	
46	
57	
58	
60	
57	
62	
43	
51	
48	
52	
44	
45	
50	
52	
56	
57	
50	
50	
41	
72	
56	
58	
46	
45	
49	
57	
48	
52	
44	
61	
53	
54	
51	
57	
29	
47	
45	
56	
55	
62	
43	
52	
53	
49	
58	
52	
62	
47	
58	
63	
37	
61	
46	
65	
54	
65	
54	
42	
48	
52	
59	
49	
55	
50	
56	
49	
51	
44	
42	
55	
52	
60	
55	
52	
64	
54	
47	
64	
53	
54	
63	
57	
51	
42	
53	
32	
62	
50	
49	
49	
38	
54	
55	
53	
46	
50	
60	
44	
45	
60	
54	
50	
42	
50	
42	
49	
56	
56	
43	
54	
40	
60	
48	
49	
54	
56	
50	
43	
49	
53	
66	
45	
70	
39	
44	
58	
54	
47	
54	
45	
50	
53	
42	
62	
61	
48	
46	
46	
55	
43	
55	
45	
51	
63	
43	
57	
40	
55	
37	
62	
44	
45	
50	
52	
54	
44	
55	
54	
42	
41	
54	
48	
46	
47	
54	
50	
44	
36	
48	
55	
70	
44	
58	
44	
46	
50	
43	
39	
53	
54	
44	
39	
48	
61	
50	
43	
44	
60	
51	
56	
54	
52	
44	
48	
51	
47	
61	
48	
45	
47	
56	
45	
39	
54	
47	
50	
39	
54	
53	
68	
65	
46	
43	
41	
42	
57	
58	
48	
46	
42	
50	
60	
37	
35	
51	
35	
52	
52	
46	
43	
48	
46	
54	
39	
45	
48	
65	
51	
48	
40	
57	
41	
50	
49	
56	
53	
40	
46	
47	
41	
47	
38	
49	
46	
49	
56	
39	
43	
38	
48	
59	
30	
48	
41	
52	
41	
46	
47	
48	
47	
37	
49	
53	
54	
51	
45	
35	
47	
58	
50	
60	
44	
62	
51	
46	
60	
50	
60	
54	
51	
55	
40	
48	
55	
52	
46	
35	
52	
45	
47	
50	
46	
50	
58	
49	
43	
55	
52	
44	
51	
46	
49	
30	
54	
50	
47	
52	
45	
54	
38	
47	
46	
53	
54	
63	
50	
56	
36	
56	
60	
52	
32	
69	
53	
44	
56	
61	
49	
38	
44	
56	
37	
44	
44	
35	
39	
46	
55	
58	
46	
43	
58	
48	
51	
47	
41	
44	
56	
39	
59	
49	
50	
43	
52	
54	
45	
47	
46	
44	
41	
35	
43	
46	
41	
47	
42	
53	
46	
44	
31	
48	
50	
47	
51	
48	
47	
47	
51	
33	
55	
40	
33	
41	
58	
34	
49	
40	
49	
47	
44	
53	
52	
50	
52	
46	
43	
54	
56	
49	
48	
46	
49	
56	
43	
59	
41	
42	
41	
42	
41	
58	
35	
48	
45	
28	
43	
57	
47	
43	
43	
48	
47	
55	
46	
52	
41	
52	
48	
45	
51	
47	
45	
50	
45	
48	
52	
44	
38	
46	
50	
42	
43	
44	
48	
36	
44	
52	
43	
39	
41	
41	
48	
49	
49	
44	
42	
44	
53	
48	
46	
52	
41	
43	
52	
52	
54	
46	
63	
47	
35	
49	
54	
38	
34	
55	
49	
39	
56	
60	
62	
46	
53	
55	
35	
45	
38	
41	
37	
49	
47	
53	
47	
38	
42	
43	
49	
35	
47	
47	
51	
45	
42	
47	
34	
39	
40	
40	
40	
34	
43	
34	
43	
54	
49	
49	
56	
48	
49	
47	
55	
45	
42	
40	
46	
41	
53	
39	
49	
52	
54	
51	
48	
42	
47	
50	
50	
40	
46	
42	
39	
56	
50	
42	
49	
43	
54	
51	
43	
55	
32	
43	
34	
48	
47	
50	
46	
46	
45	
50	
35	
41	
48	
34	
47	
65	
49	
48	
40	
36	
40	
43	
57	
45	
59	
54	
44	
42	
46	
46	
48	
48	
48	
47	
51	
35	
51	
35	
40	
38	
57	
45	
45	
42	
36	
35	
46	
36	
60	
31	
44	
49	
49	
49	
43	
42	
41	
34	
48	
48	
38	
41	
43	
60	
38	
35	
49	
43	
34	
38	
47	
45	
40	
38	
47	
53	
40	
59	
47	
52	
39	
53	
41	
45	
46	
44	
54	
52	
42	
53	
54	
43	
47	
43	
53	
39	
32	
42	
46	
39	
37	
41	
43	
34	
54	
48	
51	
43	
45	
42	
48	
48	
46	
41	
49	
38	
49	
40	
34	
49	
34	
43	
33	
36	
42	
54	
40	
39	
36	
36	
40	
48	
35	
40	
55	
49	
40	
50	
33	
51	
37	
56	
55	
40	
49	
42	
41	
40	
40	
51	
35	
52	
35	
42	
47	
43	
47	
61	
39	
45	
47	
47	
42	
43	
45	
58	
34	
43	
36	
56	
56	
42	
51	
46	
42	
45	
46	
49	
43	
40	
52	
47	
49	
55	
54	
41	
58	
35	
42	
48	
42	
38	
52	
47	
49	
43	
39	
38	
43	
52	
49	
53	
49	
40	
41	
40	
39	
48	
35	
55	
52	
35	
41	
45	
42	
46	
42	
31	
38	
51	
52	
50	
42	
41	
59	
35	
42	
51	
44	
44	
49	
53	
38	
41	
43	
51	
43	
44	
42	
46	
41	
45	
44	
46	
42	
46	
43	
45	
44	
45	
37	
41	
48	
39	
50	
44	
43	
35	
56	
40	
46	
36	
50	
35	
48	
42	
47	
40	
43	
50	
36	
42	
46	
39	
32	
46	
48	
30	
38	
47	
50	
41	
50	
40	
38	
48	
39	
58	
44	
38	
58	
41	
23	
48	
44	
35	
58	
50	
43	
42	
41	
53	
35	
48	
39	
46	
39	
52	
60	
41	
38	
49	
52	
58	
41	
42	
41	
48	
39	
38	
47	
42	
51	
43	
46	
52	
29	
38	
44	
41	
45	
39	
41	
45	
37	
42	
42	
46	
40	
36	
37	
47	
46	
53	
43	
38	
48	
41	
34	
57	
37	
48	
55	
43	
50	
50	
40	
42	
32	
43	
60	
39	
51	
39	
45	
38	
38	
38	
40	
33	
41	
49	
50	
38	
45	
31	
44	
40	
33	
47	
43	
40	
54	
35	
41	
35	
32	
39	
58	
43	
36	
46	
47	
41	
43	
40	
44	
34	
39	
34	
47	
43	
46	
26	
45	
41	
35	
47	
34	
39	
42	
48	
43	
46	
40	
34	
36	
37	
38	
32	
43	
48	
26	
45	
39	
47	
42	
31	
36	
40	
52	
41	
40	
37	
42	
51	
35	
42	
32	
46	
32	
48	
35	
42	
40	
45	
38	
34	
31	
48	
40	
56	
29	
40	
34	
42	
48	
42	
54	
31	
33	
43	
39	
32	
40	
49	
43	
42	
45	
39	
36	
33	
49	
51	
53	
34	
45	
35	
41	
37	
45	
32	
48	
29	
36	
49	
46	
50	
46	
57	
43	
53	
39	
37	
38	
46	
40	
43	
42	
52	
40	
34	
38	
49	
51	
40	
50	
44	
42	
35	
31	
44	
46	
37	
40	
46	
49	
39	
38	
43	
42	
39	
37	
47	
40	
37	
26	
35	
34	
43	
37	
42	
46	
38	
30	
47	
47	
32	
40	
51	
46	
32	
41	
34	
47	
54	
35	
48	
36	
38	
59	
37	
46	
42	
26	
48	
39	
46	
43	
40	
36	
49	
41	
33	
40	
43	
45	
43	
38	
43	
47	
39	
40	
44	
46	
37	
32	
37	
34	
46	
46	
35	
36	
32	
38	
46	
39	
40	
32	
39	
36	
37	
33	
37	
36	
38	
51	
46	
34	
40	
53	
46	
53	
35	
46	
33	
27	
37	
45	
39	
37	
35	
40	
45	
47	
43	
37	
31	
31	
30	
35	
28	
57	
37	
46	
52	
32	
35	
32	
47	
31	
32	
41	
40	
27	
36	
38	
41	
49	
44	
45	
32	
32	
33	
37	
43	
48	
33	
36	
47	
49	
44	
48	
34	
26	
46	
32	
40	
31	
26	
41	
44	
60	
37	
32	
42	
46	
47	
51	
38	
30	
48	
31	
43	
29	
35	
39	
47	
38	
45	
38	
27	
44	
36	
45	
34	
36	
34	
32	
40	
35	
47	
32	
34	
36	
37	
43	
36	
40	
33	
40	
48	
36	
35	
35	
52	
36	
44	
46	
41	
30	
39	
35	
41	
47	
41	
33	
51	
39	
28	
39	
41	
33	
28	
50	
45	
22	
36	
33	
51	
45	
39	
34	
48	
45	
45	
39	
40	
41	
45	
39	
37	
51	
42	
39	
35	
32	
44	
34	
37	
40	
37	
35	
39	
26	
45	
40	
32	
40	
39	
37	
31	
37	
42	
48	
29	
42	
34	
48	
29	
32	
37	
48	
33	
50	
34	
30	
32	
32	
41	
44	
39	
43	
41	
38	
40	
37	
44	
38	
37	
39	
35	
40	
34	
38	
36	
35	
38	
35	
40	
51	
34	
37	
38	
33	
31	
37	
46	
33	
34	
56	
42	
38	
34	
43	
34	
39	
34	
39	
34	
41	
47	
47	
45	
32	
30	
27	
47	
32	
41	
33	
40	
35	
39	
42	
41	
43	
44	
29	
29	
34	
30	
22	
33	
62	
41	
41	
45	
41	
31	
34	
41	
38	
47	
45	
45	
42	
41	
43	
33	
31	
35	
36	
51	
43	
40	
32	
51	
34	
31	
44	
25	
40	
37	
39	
40	
31	
28	
41	
52	
31	
34	
35	
38	
55	
34	
32	
37	
32	
38	
34	
40	
33	
39	
41	
41	
42	
41	
43	
44	
46	
48	
30	
37	
45	
29	
36	
33	
35	
33	
29	
35	
27	
27	
45	
42	
42	
43	
25	
52	
46	
37	
42	
32	
26	
36	
38	
32	
41	
30	
36	
43	
38	
34	
27	
25	
40	
37	
34	
45	
39	
40	
35	
25	
39	
43	
33	
41	
39	
37	
45	
40	
39	
32	
34	
31	
34	
48	
41	
39	
33	
43	
33	
32	
41	
29	
38	
34	
36	
35	
44	
36	
39	
48	
33	
39	
36	
35	
33	
31	
28	
45	
32	
45	
37	
41	
43	
42	
36	
24	
36	
34	
39	
36	
44	
44	
39	
51	
35	
36	
29	
28	
43	
35	
32	
31	
34	
35	
30	
38	
37	
36	
45	
36	
25	
40	
30	
46	
31	
46	
32	
39	
31	
39	
26	
43	
31	
42	
34	
42	
34	
43	
35	
30	
43	
37	
43	
38	
38	
30	
33	
35	
32	
37	
48	
33	
41	
30	
37	
35	
32	
27	
36	
37	
28	
40	
38	
38	
35	
30	
36	
42	
37	
37	
41	
29	
31	
33	
31	
29	
44	
21	
46	
32	
31	
43	
28	
31	
45	
44	
48	
24	
36	
28	
23	
23	
41	
37	
40	
35	
35	
32	
29	
33	
43	
38	
30	
31	
40	
35	
36	
27	
39	
34	
35	
32	
32	
42	
31	
32	
29	
24	
33	
34	
40	
29	
30	
37	
33	
46	
37	
33	
33	
36	
36	
36	
30	
30	
31	
42	
41	
40	
33	
52	
44	
31	
42	
35	
37	
37	
31	
41	
49	
40	
27	
45	
30	
44	
29	
44	
29	
38	
31	
33	
32	
50	
29	
27	
32	
32	
34	
46	
36	
33	
32	
32	
28	
28	
28	
38	
26	
25	
33	
39	
31	
38	
26	
35	
38	
33	
44	
36	
41	
40	
43	
39	
23	
34	
33	
37	
39	
39	
41	
27	
32	
34	
34	
44	
30	
40	
35	
37	
45	
31	
28	
41	
28	
30	
25	
35	
33	
37	
33	
30	
28	
35	
27	
40	
38	
40	
45	
30	
30	
36	
32	
35	
36	
34	
39	
31	
29	
27	
44	
36	
36	
35	
41	
32	
41	
37	
38	
45	
31	
27	
39	
37	
26	
30	
34	
46	
37	
37	
38	
23	
42	
51	
21	
30	
47	
38	
24	
33	
38	
34	
25	
30	
32	
45	
23	
27	
32	
31	
32	
42	
36	
43	
36	
31	
26	
29	
31	
25	
29	
29	
39	
36	
37	
45	
43	
42	
30	
37	
35	
31	
41	
34	
38	
42	
32	
33	
19	
33	
29	
32	
32	
38	
34	
38	
39	
34	
28	
39	
30	
31	
31	
37	
34	
34	
29	
35	
38	
40	
40	
28	
30	
37	
38	
31	
40	
44	
44	
33	
25	
41	
25	
34	
41	
30	
29	
23	
47	
41	
39	
48	
41	
34	
24	
47	
27	
40	
36	
40	
49	
30	
34	
34	
34	
28	
42	
40	
39	
33	
33	
26	
36	
32	
38	
43	
34	
36	
20	
37	
27	
32	
39	
40	
30	
27	
37	
33	
42	
27	
32	
28	
40	
38	
40	
36	
25	
27	
32	
30	
43	
34	
32	
37	
33	
30	
34	
32	
29	
40	
24	
44	
32	
33	
37	
31	
37	
32	
28	
35	
41	
31	
29	
30	
40	
33	
32	
39	
28	
31	
39	
28	
30	
26	
31	
36	
32	
29	
35	
30	
34	
36	
30	
33	
34	
32	
29	
33	
27	
27	
37	
42	
35	
32	
33	
23	
27	
36	
32	
31	
33	
38	
32	
33	
22	
33	
39	
40	
35	
33	
34	
40	
35	
39	
35	
37	
34	
24	
43	
33	
33	
31	
32	
24	
28	
18	
34	
37	
36	
29	
47	
34	
35	
37	
30	
40	
29	
39	
27	
41	
26	
34	
40	
30	
38	
33	
35	
35	
40	
36	
30	
30	
29	
38	
37	
40	
37	
31	
33	
32	
30	
44	
25	
35	
32	
34	
37	
28	
31	
27	
34	
29	
21	
39	
28	
37	
29	
29	
40	
27	
37	
25	
29	
31	
36	
29	
31	
41	
27	
33	
34	
36	
32	
25	
27	
27	
42	
29	
30	
33	
33	
21	
30	
29	
31	
33	
36	
28	
26	
37	
24	
37	
37	
29	
30	
39	
35	
23	
34	
32	
35	
30	
37	
37	
34	
24	
40	
29	
41	
16	
23	
22	
36	
30	
29	
39	
33	
27	
25	
42	
32	
30	
34	
38	
28	
44	
34	
34	
39	
32	
30	
37	
25	
24	
29	
42	
38	
24	
30	
35	
28	
27	
24	
29	
30	
34	
27	
42	
32	
27	
31	
36	
34	
28	
32	
28	
47	
35	
27	
34	
16	
26	
32	
34	
38	
37	
31	
35	
40	
23	
43	
24	
33	
33	
36	
27	
36	
32	
31	
29	
28	
25	
39	
22	
26	
30	
32	
32	
31	
24	
36	
38	
31	
23	
35	
39	
25	
25	
24	
35	
32	
30	
40	
30	
33	
38	
43	
26	
28	
26	
26	
28	
37	
34	
35	
41	
33	
23	
33	
18	
37	
23	
29	
25	
37	
27	
31	
28	
31	
38	
35	
24	
29	
30	
30	
34	
32	
28	
47	
32	
29	
48	
41	
36	
33	
41	
27	
25	
38	
26	
33	
33	
30	
33	
27	
31	
29	
22	
29	
20	
23	
27	
27	
30	
34	
35	
27	
26	
25	
39	
28	
37	
35	
41	
29	
38	
31	
25	
35	
35	
28	
26	
29	
37	
34	
34	
33	
37	
33	
25	
37	
24	
30	
31	
44	
35	
23	
39	
40	
33	
21	
24	
30	
27	
27	
29	
29	
30	
36	
35	
32	
46	
21	
20	
34	
29	
39	
35	
24	
25	
26	
33	
25	
30	
35	
33	
33	
22	
28	
28	
35	
26	
28	
24	
35	
22	
34	
34	
25	
30	
28	
23	
23	
33	
29	
31	
36	
31	
37	
32	
35	
26	
32	
32	
26	
34	
31	
27	
35	
41	
31	
23	
27	
30	
29	
35	
22	
36	
26	
28	
25	
25	
29	
20	
28	
22	
34	
28	
27	
30	
28	
22	
31	
27	
26	
32	
30	
29	
29	
30	
27	
34	
28	
33	
39	
41	
25	
41	
33	
42	
30	
34	
39	
32	
26	
26	
37	
24	
27	
35	
34	
33	
36	
23	
22	
24	
29	
30	
33	
29	
29	
32	
33	
24	
34	
27	
25	
36	
27	
24	
40	
40	
27	
25	
34	
33	
24	
17	
37	
27	
22	
34	
41	
27	
28	
19	
31	
27	
37	
26	
36	
27	
23	
29	
26	
36	
42	
25	
23	
30	
36	
32	
26	
35	
30	
38	
35	
28	
33	
24	
36	
27	
28	
31	
33	
23	
33	
26	
34	
27	
32	
34	
29	
33	
35	
27	
26	
15	
24	
32	
36	
35	
25	
33	
24	
37	
25	
30	
26	
31	
32	
23	
37	
27	
22	
29	
28	
27	
38	
32	
31	
30	
40	
31	
22	
27	
25	
25	
35	
27	
40	
32	
24	
36	
34	
20	
31	
24	
35	
26	
10	
37	
28	
25	
28	
27	
29	
36	
32	
30	
41	
29	
38	
36	
23	
32	
25	
21	
37	
25	
31	
30	
35	
27	
28	
32	
28	
30	
39	
28	
32	
28	
31	
29	
26	
22	
23	
25	
28	
22	
28	
36	
26	
36	
40	
30	
27	
31	
35	
32	
25	
28	
35	
18	
31	
29	
37	
21	
26	
26	
27	
27	
28	
24	
30	
35	
29	
27	
34	
24	
25	
35	
31	
31	
29	
37	
28	
30	
38	
32	
25	
36	
35	
26	
30	
30	
28	
34	
35	
28	
35	
20	
31	
27	
26	
23	
30	
35	
19	
21	
37	
38	
12	
26	
28	
30	
32	
29	
25	
31	
23	
28	
23	
21	
29	
28	
36	
40	
27	
32	
31	
25	
29	
30	
28	
28	
27	
30	
31	
22	
21	
23	
33	
31	
33	
30	
29	
24	
34	
25	
30	
27	
35	
28	
28	
25	
29	
31	
31	
23	
36	
26	
28	
23	
37	
18	
33	
32	
25	
33	
24	
26	
27	
24	
28	
29	
30	
24	
29	
20	
24	
26	
33	
32	
35	
25	
26	
25	
28	
44	
28	
37	
25	
34	
26	
38	
22	
30	
28	
30	
26	
33	
25	
26	
20	
27	
25	
28	
33	
22	
36	
18	
28	
22	
32	
27	
20	
31	
28	
23	
34	
28	
27	
29	
28	
30	
23	
26	
26	
30	
31	
31	
27	
34	
26	
38	
30	
28	
25	
25	
25	
24	
22	
33	
26	
30	
33	
30	
14	
32	
25	
17	
23	
27	
24	
31	
35	
19	
34	
29	
37	
37	
28	
36	
27	
20	
32	
25	
20	
26	
25	
18	
29	
30	
37	
29	
29	
17	
30	
27	
41	
26	
30	
22	
32	
28	
27	
24	
27	
26	
33	
30	
29	
25	
27	
19	
22	
24	
23	
26	
27	
26	
25	
30	
26	
31	
27	
25	
25	
32	
28	
30	
32	
31	
23	
36	
30	
36	
28	
18	
25	
37	
24	
27	
27	
25	
27	
23	
28	
26	
28	
26	
22	
25	
26	
36	
27	
30	
22	
21	
24	
36	
17	
26	
25	
29	
22	
24	
38	
22	
22	
27	
27	
31	
23	
29	
31	
24	
35	
34	
24	
27	
20	
28	
21	
13	
18	
32	
24	
30	
26	
37	
23	
30	
31	
20	
34	
24	
27	
23	
26	
25	
20	
28	
23	
38	
27	
26	
24	
32	
23	
24	
25	
22	
37	
29	
22	
21	
18	
25	
22	
29	
34	
28	
32	
27	
25	
27	
30	
17	
39	
30	
22	
25	
25	
25	
21	
30	
27	
23	
16	
27	
38	
24	
28	
36	
34	
28	
22	
25	
51	
30	
17	
27	
25	
27	
31	
32	
38	
34	
31	
30	
26	
17	
24	
32	
24	
28	
17	
26	
32	
29	
28	
33	
35	
18	
26	
24	
31	
31	
25	
20	
19	
15	
19	
24	
37	
34	
36	
26	
37	
24	
33	
26	
26	
26	
30	
26	
26	
31	
20	
23	
32	
27	
33	
36	
26	
21	
20	
32	
28	
29	
36	
25	
27	
21	
28	
17	
30	
29	
27	
23	
32	
28	
32	
34	
25	
19	
22	
26	
25	
22	
22	
24	
19	
35	
22	
37	
26	
30	
23	
26	
31	
17	
28	
23	
32	
34	
34	
27	
34	
23	
23	
28	
27	
27	
22	
24	
25	
23	
24	
21	
26	
29	
29	
31	
27	
24	
24	
33	
29	
24	
26	
19	
35	
20	
25	
24	
18	
16	
23	
20	
29	
24	
25	
27	
27	
31	
23	
21	
22	
28	
27	
34	
30	
26	
20	
33	
24	
28	
36	
24	
33	
28	
31	
28	
23	
29	
20	
27	
24	
17	
18	
36	
22	
