#PicoHarp 300  Histogram Data			04/20/2022 04:15:29 PM
#channels per curve
31250
#display curve no.
0	
#memory block no.
0	
#ns/channel
0.0320	
#counts
5	
0	
0	
3	
4	
1	
2	
4	
1	
0	
0	
2	
2	
3	
4	
3	
0	
1	
2	
2	
1	
1	
1	
2	
1	
1	
1	
0	
1	
0	
0	
2	
2	
2	
1	
2	
1	
1	
3	
3	
3	
2	
2	
1	
3	
2	
1	
1	
1	
2	
2	
3	
1	
2	
1	
1	
1	
3	
2	
3	
4	
4	
0	
1	
0	
1	
2	
5	
1	
1	
0	
1	
1	
4	
3	
2	
0	
1	
0	
4	
0	
1	
2	
2	
2	
2	
0	
4	
2	
2	
2	
2	
3	
0	
1	
3	
3	
4	
2	
2	
2	
1	
3	
2	
1	
3	
1	
1	
4	
2	
1	
3	
0	
1	
1	
2	
3	
3	
2	
2	
4	
1	
1	
1	
1	
1	
3	
1	
2	
1	
2	
2	
4	
1	
1	
0	
2	
1	
2	
1	
0	
1	
4	
1	
1	
0	
0	
1	
2	
3	
3	
3	
2	
5	
1	
1	
1	
2	
1	
0	
1	
2	
1	
2	
1	
1	
1	
3	
0	
2	
0	
0	
2	
2	
4	
0	
1	
1	
1	
3	
2	
4	
1	
0	
2	
2	
1	
1	
2	
2	
0	
3	
1	
0	
1	
3	
3	
0	
0	
1	
4	
3	
1	
1	
0	
2	
1	
2	
0	
3	
4	
1	
2	
0	
1	
3	
0	
1	
3	
2	
2	
1	
1	
2	
2	
2	
2	
1	
1	
2	
5	
2	
1	
1	
2	
3	
2	
2	
2	
1	
1	
1	
1	
1	
2	
2	
2	
1	
2	
1	
2	
0	
2	
0	
2	
1	
1	
0	
2	
3	
0	
0	
0	
3	
2	
1	
0	
3	
0	
1	
3	
0	
3	
0	
1	
0	
0	
0	
3	
1	
0	
0	
1	
2	
2	
2	
1	
4	
0	
2	
1	
0	
2	
2	
0	
1	
2	
3	
3	
0	
0	
4	
1	
0	
2	
2	
3	
1	
2	
2	
2	
0	
1	
5	
1	
3	
2	
2	
1	
0	
3	
6	
2	
2	
1	
2	
2	
0	
2	
1	
0	
3	
0	
1	
1	
4	
0	
2	
3	
0	
3	
2	
0	
5	
4	
1	
2	
4	
3	
2	
0	
1	
3	
1	
1	
1	
2	
0	
1	
4	
3	
1	
1	
0	
2	
1	
2	
1	
1	
1	
0	
1	
7	
0	
1	
4	
1	
3	
2	
0	
0	
0	
1	
2	
0	
3	
0	
0	
2	
3	
1	
4	
4	
2	
2	
3	
1	
1	
1	
1	
2	
0	
4	
0	
2	
2	
2	
1	
1	
1	
1	
1	
2	
1	
1	
1	
2	
3	
3	
1	
2	
2	
2	
1	
2	
2	
2	
1	
2	
1	
1	
1	
0	
1	
1	
3	
0	
0	
2	
3	
3	
1	
4	
2	
0	
4	
4	
3	
3	
5	
1	
3	
1	
1	
1	
0	
4	
2	
4	
2	
2	
2	
1	
0	
0	
0	
0	
3	
1	
2	
0	
0	
0	
1	
2	
4	
0	
2	
1	
1	
1	
0	
3	
1	
0	
2	
2	
4	
0	
1	
2	
2	
1	
3	
1	
2	
1	
2	
1	
1	
1	
2	
4	
0	
1	
4	
0	
0	
0	
1	
2	
1	
1	
1	
0	
1	
0	
6	
3	
2	
0	
1	
1	
1	
5	
2	
0	
1	
3	
0	
3	
1	
2	
4	
4	
1	
1	
1	
1	
0	
3	
2	
3	
4	
1	
4	
1	
0	
0	
3	
3	
0	
1	
2	
2	
0	
3	
2	
2	
1	
3	
1	
0	
1	
1	
1	
2	
0	
3	
0	
0	
1	
1	
0	
0	
2	
2	
1	
1	
2	
5	
1	
1	
4	
0	
1	
5	
5	
3	
2	
3	
0	
1	
0	
0	
1	
3	
2	
0	
5	
1	
1	
1	
0	
1	
0	
0	
1	
2	
2	
3	
1	
1	
0	
2	
4	
1	
1	
5	
1	
1	
1	
3	
2	
1	
0	
1	
1	
3	
0	
3	
1	
3	
1	
1	
1	
0	
2	
2	
1	
1	
2	
2	
1	
1	
2	
0	
1	
0	
3	
0	
1	
2	
3	
0	
1	
6	
0	
1	
3	
3	
1	
1	
3	
1	
2	
1	
3	
1	
2	
1	
3	
0	
1	
1	
0	
1	
0	
3	
4	
1	
0	
1	
2	
2	
1	
2	
0	
2	
2	
1	
2	
1	
2	
3	
2	
1	
1	
1	
1	
2	
3	
0	
0	
2	
0	
0	
0	
2	
1	
0	
2	
0	
3	
0	
0	
1	
1	
0	
1	
1	
1	
1	
1	
1	
1	
1	
1	
2	
1	
3	
1	
3	
0	
0	
4	
1	
1	
2	
0	
2	
2	
1	
1	
1	
3	
1	
3	
4	
1	
0	
1	
2	
3	
1	
2	
4	
0	
1	
1	
3	
1	
1	
0	
0	
0	
0	
1	
4	
0	
0	
1	
4	
0	
1	
1	
2	
1	
1	
2	
1	
0	
2	
1	
1	
0	
1	
4	
2	
2	
0	
0	
2	
0	
1	
0	
1	
4	
2	
1	
2	
1	
1	
1	
1	
0	
3	
2	
1	
0	
1	
0	
0	
2	
2	
2	
1	
2	
1	
3	
4	
0	
0	
0	
2	
1	
0	
5	
0	
0	
3	
2	
2	
2	
0	
1	
2	
0	
2	
2	
1	
2	
4	
1	
0	
1	
1	
2	
1	
1	
1	
2	
2	
3	
0	
3	
3	
3	
1	
2	
2	
2	
4	
0	
3	
0	
2	
1	
1	
2	
2	
0	
0	
2	
1	
2	
2	
5	
1	
1	
1	
0	
2	
2	
2	
2	
2	
0	
3	
3	
0	
3	
0	
3	
0	
1	
0	
2	
3	
2	
1	
1	
4	
1	
2	
2	
0	
2	
2	
2	
1	
0	
0	
5	
2	
0	
0	
2	
1	
2	
3	
2	
1	
2	
5	
3	
3	
3	
2	
0	
2	
0	
1	
0	
0	
4	
2	
2	
2	
0	
3	
1	
2	
3	
0	
4	
4	
2	
0	
2	
1	
0	
4	
4	
0	
2	
3	
3	
3	
0	
3	
2	
1	
2	
2	
1	
6	
5	
3	
5	
4	
5	
8	
13	
8	
15	
13	
18	
17	
24	
29	
35	
32	
48	
55	
65	
68	
67	
100	
99	
118	
116	
142	
147	
176	
185	
219	
214	
244	
222	
285	
266	
305	
305	
339	
292	
334	
339	
390	
376	
382	
368	
407	
393	
413	
401	
407	
439	
426	
414	
435	
451	
422	
430	
430	
470	
476	
451	
458	
444	
465	
431	
457	
426	
432	
423	
435	
440	
436	
436	
448	
430	
432	
444	
474	
457	
479	
433	
457	
430	
478	
462	
466	
441	
421	
424	
436	
419	
450	
445	
440	
461	
414	
429	
418	
436	
458	
417	
430	
436	
458	
415	
442	
411	
433	
405	
440	
391	
408	
447	
437	
446	
411	
419	
423	
446	
413	
432	
441	
398	
444	
381	
428	
409	
387	
393	
406	
390	
430	
382	
446	
452	
410	
399	
397	
411	
442	
385	
407	
419	
435	
426	
426	
416	
392	
388	
395	
415	
409	
390	
393	
386	
415	
392	
405	
441	
401	
407	
409	
415	
422	
401	
391	
389	
427	
378	
366	
422	
408	
405	
401	
397	
402	
411	
371	
386	
399	
399	
393	
385	
379	
412	
374	
398	
435	
402	
400	
398	
434	
363	
402	
395	
421	
404	
385	
380	
397	
358	
392	
408	
400	
416	
425	
401	
337	
424	
392	
369	
404	
379	
382	
349	
384	
366	
371	
372	
402	
379	
345	
393	
373	
359	
368	
391	
371	
378	
364	
396	
356	
372	
341	
396	
361	
417	
380	
386	
356	
356	
400	
362	
348	
385	
371	
366	
385	
353	
342	
374	
360	
381	
401	
329	
369	
371	
332	
361	
364	
364	
349	
380	
391	
343	
386	
312	
399	
368	
374	
376	
341	
351	
355	
386	
380	
357	
357	
389	
383	
321	
366	
373	
360	
348	
393	
368	
349	
371	
367	
352	
378	
370	
347	
377	
394	
362	
357	
364	
333	
364	
347	
385	
349	
351	
333	
376	
354	
339	
362	
355	
327	
370	
338	
348	
328	
343	
359	
321	
353	
348	
324	
362	
348	
317	
350	
333	
332	
360	
357	
353	
338	
345	
348	
351	
384	
381	
322	
352	
334	
340	
342	
356	
327	
363	
341	
332	
361	
342	
338	
300	
343	
337	
314	
356	
356	
347	
344	
311	
325	
354	
315	
339	
342	
327	
331	
332	
326	
310	
341	
336	
318	
322	
361	
339	
335	
326	
332	
345	
341	
309	
341	
329	
338	
322	
334	
316	
316	
335	
367	
327	
342	
332	
314	
343	
317	
331	
354	
303	
301	
328	
319	
291	
308	
314	
312	
325	
318	
276	
320	
318	
321	
320	
316	
294	
295	
312	
346	
326	
323	
348	
331	
320	
290	
330	
283	
322	
320	
331	
324	
301	
330	
290	
331	
340	
310	
303	
297	
338	
338	
314	
310	
319	
296	
335	
340	
317	
332	
314	
309	
318	
316	
314	
331	
288	
314	
304	
272	
320	
315	
299	
312	
327	
273	
321	
304	
303	
316	
319	
304	
301	
309	
288	
334	
299	
302	
314	
303	
303	
269	
292	
313	
328	
291	
311	
298	
302	
284	
330	
309	
271	
291	
286	
300	
300	
284	
310	
322	
289	
286	
308	
315	
287	
324	
264	
336	
334	
285	
332	
263	
297	
298	
275	
282	
270	
298	
291	
268	
303	
292	
282	
307	
296	
249	
305	
292	
310	
310	
293	
261	
277	
304	
264	
285	
299	
308	
309	
273	
317	
277	
279	
300	
288	
282	
301	
286	
298	
277	
267	
278	
305	
263	
311	
282	
274	
280	
300	
263	
278	
291	
263	
273	
287	
312	
265	
278	
286	
271	
276	
265	
308	
289	
264	
285	
307	
290	
291	
253	
294	
271	
306	
292	
277	
282	
296	
272	
317	
245	
282	
253	
233	
256	
301	
275	
258	
275	
285	
297	
281	
248	
260	
309	
291	
298	
255	
251	
273	
290	
285	
247	
263	
269	
247	
256	
286	
260	
291	
295	
230	
315	
276	
266	
277	
282	
268	
267	
287	
300	
291	
242	
241	
277	
277	
267	
262	
257	
246	
292	
266	
261	
283	
281	
259	
248	
256	
248	
255	
260	
283	
253	
244	
263	
286	
276	
290	
280	
248	
270	
244	
245	
282	
270	
232	
268	
272	
270	
251	
254	
258	
224	
239	
269	
270	
273	
243	
243	
262	
273	
261	
252	
293	
304	
249	
270	
260	
227	
247	
237	
270	
243	
249	
251	
260	
237	
265	
258	
237	
248	
261	
254	
268	
276	
272	
229	
253	
240	
251	
242	
271	
249	
263	
258	
291	
288	
276	
256	
253	
243	
254	
249	
237	
236	
266	
250	
266	
225	
247	
271	
221	
268	
256	
276	
234	
238	
261	
277	
253	
232	
242	
232	
276	
267	
218	
259	
263	
266	
234	
252	
270	
247	
266	
243	
259	
232	
253	
229	
231	
250	
240	
252	
249	
227	
249	
284	
223	
242	
217	
249	
238	
266	
243	
258	
230	
213	
227	
265	
251	
263	
250	
241	
244	
234	
252	
231	
239	
241	
235	
228	
228	
239	
242	
247	
228	
249	
260	
241	
196	
253	
204	
239	
248	
243	
214	
247	
225	
224	
227	
218	
241	
256	
242	
224	
236	
228	
238	
205	
234	
231	
228	
219	
222	
230	
257	
242	
227	
248	
217	
189	
250	
258	
234	
233	
245	
235	
245	
214	
239	
223	
230	
214	
236	
250	
218	
249	
216	
240	
230	
223	
236	
229	
229	
203	
245	
235	
237	
243	
232	
231	
225	
232	
207	
237	
249	
238	
247	
221	
223	
231	
240	
217	
228	
242	
217	
214	
219	
231	
232	
204	
225	
244	
229	
245	
223	
210	
211	
247	
203	
193	
220	
199	
218	
211	
236	
224	
229	
224	
248	
243	
178	
216	
211	
260	
225	
233	
229	
223	
224	
200	
214	
231	
216	
219	
206	
217	
240	
225	
216	
226	
213	
203	
220	
238	
225	
226	
227	
208	
220	
189	
227	
209	
218	
233	
210	
206	
204	
208	
201	
222	
229	
201	
236	
201	
232	
207	
221	
198	
203	
235	
195	
205	
201	
222	
215	
219	
208	
214	
189	
225	
263	
225	
228	
239	
194	
214	
195	
223	
220	
202	
199	
218	
240	
209	
214	
221	
195	
228	
222	
220	
218	
212	
215	
190	
213	
223	
217	
211	
222	
208	
215	
204	
211	
228	
223	
195	
188	
218	
217	
181	
221	
216	
212	
201	
228	
211	
222	
220	
214	
216	
192	
186	
175	
231	
216	
193	
224	
201	
218	
216	
205	
196	
194	
190	
225	
207	
198	
204	
224	
189	
173	
206	
229	
215	
205	
215	
173	
218	
214	
206	
203	
220	
217	
210	
187	
199	
207	
179	
193	
183	
224	
210	
215	
201	
184	
170	
215	
225	
204	
205	
190	
216	
199	
192	
215	
187	
190	
178	
195	
196	
211	
193	
200	
197	
204	
214	
195	
209	
209	
171	
219	
173	
203	
196	
186	
201	
192	
207	
183	
185	
192	
192	
223	
201	
183	
216	
189	
173	
192	
195	
192	
185	
208	
212	
212	
208	
184	
213	
203	
206	
203	
196	
186	
198	
198	
191	
205	
192	
159	
202	
173	
194	
188	
180	
173	
201	
200	
206	
215	
190	
189	
194	
164	
190	
216	
171	
171	
198	
184	
201	
199	
190	
171	
180	
192	
183	
213	
195	
192	
175	
203	
202	
188	
193	
215	
187	
181	
187	
205	
219	
168	
176	
182	
164	
212	
208	
169	
170	
181	
197	
179	
160	
182	
188	
182	
186	
183	
181	
179	
180	
172	
214	
190	
170	
178	
198	
183	
186	
181	
179	
154	
166	
195	
184	
198	
166	
201	
197	
163	
204	
194	
193	
183	
205	
191	
179	
191	
182	
187	
183	
178	
172	
204	
188	
178	
181	
177	
184	
193	
160	
162	
192	
178	
181	
178	
170	
195	
190	
162	
201	
169	
190	
198	
182	
172	
169	
196	
164	
191	
177	
160	
189	
192	
184	
166	
177	
184	
185	
168	
187	
169	
174	
190	
194	
186	
175	
164	
181	
165	
186	
190	
185	
163	
184	
184	
187	
168	
166	
193	
175	
204	
161	
174	
187	
180	
189	
141	
169	
155	
163	
164	
199	
153	
196	
176	
178	
173	
168	
176	
152	
181	
165	
174	
168	
166	
180	
192	
178	
151	
171	
167	
180	
168	
182	
168	
165	
189	
191	
152	
186	
198	
165	
186	
166	
184	
152	
157	
176	
167	
166	
181	
165	
196	
169	
201	
170	
159	
156	
157	
161	
161	
174	
181	
175	
174	
166	
193	
172	
171	
177	
159	
177	
167	
156	
170	
170	
183	
159	
183	
191	
173	
183	
158	
171	
167	
161	
162	
153	
159	
197	
151	
171	
162	
140	
170	
182	
150	
166	
182	
162	
153	
168	
165	
180	
188	
152	
164	
163	
159	
188	
197	
174	
162	
144	
132	
159	
159	
184	
171	
178	
181	
155	
146	
172	
165	
168	
173	
150	
173	
177	
164	
175	
155	
152	
161	
154	
180	
170	
178	
167	
153	
160	
147	
164	
162	
168	
166	
145	
154	
175	
163	
161	
158	
165	
154	
169	
144	
140	
160	
149	
165	
186	
143	
172	
172	
172	
150	
159	
171	
150	
157	
137	
151	
169	
170	
146	
163	
147	
165	
140	
155	
163	
167	
168	
152	
165	
172	
164	
150	
145	
134	
142	
142	
182	
157	
151	
154	
178	
152	
145	
149	
176	
165	
158	
152	
146	
141	
177	
181	
166	
157	
157	
174	
145	
150	
165	
172	
157	
150	
157	
144	
158	
147	
131	
151	
166	
146	
170	
181	
153	
162	
173	
146	
156	
144	
164	
152	
171	
158	
137	
162	
163	
157	
173	
157	
151	
156	
159	
169	
161	
144	
171	
156	
149	
144	
144	
159	
161	
157	
150	
136	
157	
132	
165	
148	
143	
140	
143	
157	
149	
147	
147	
181	
188	
157	
175	
159	
134	
169	
140	
154	
162	
151	
152	
148	
149	
164	
151	
159	
164	
160	
161	
153	
144	
158	
135	
144	
159	
159	
145	
155	
157	
145	
159	
150	
142	
157	
163	
137	
145	
139	
146	
149	
144	
163	
150	
156	
118	
147	
138	
156	
153	
133	
158	
153	
121	
128	
138	
154	
131	
130	
142	
160	
138	
140	
142	
134	
144	
149	
148	
151	
163	
142	
134	
132	
156	
146	
130	
150	
153	
141	
142	
138	
123	
125	
141	
148	
142	
157	
155	
144	
127	
150	
161	
137	
154	
137	
118	
183	
138	
127	
137	
141	
144	
143	
135	
134	
154	
130	
141	
146	
134	
137	
115	
158	
148	
122	
165	
130	
161	
167	
141	
134	
147	
158	
148	
146	
136	
145	
153	
133	
144	
149	
135	
144	
131	
153	
126	
147	
145	
132	
135	
141	
147	
124	
157	
121	
136	
144	
132	
128	
144	
147	
134	
147	
164	
128	
131	
132	
142	
118	
148	
127	
127	
129	
131	
143	
144	
146	
150	
132	
147	
157	
143	
138	
141	
149	
137	
154	
129	
130	
133	
115	
141	
123	
151	
125	
141	
137	
115	
152	
136	
131	
149	
139	
142	
130	
132	
139	
140	
144	
145	
118	
123	
128	
127	
120	
150	
139	
147	
137	
142	
147	
133	
122	
147	
127	
149	
138	
138	
131	
138	
126	
145	
121	
130	
130	
139	
144	
123	
133	
114	
145	
142	
140	
133	
124	
129	
131	
119	
137	
114	
148	
118	
102	
112	
149	
145	
136	
129	
142	
148	
142	
144	
139	
121	
139	
116	
141	
140	
124	
121	
152	
119	
147	
131	
109	
140	
126	
140	
104	
124	
123	
117	
132	
133	
112	
129	
110	
117	
125	
159	
131	
132	
132	
139	
120	
124	
115	
135	
118	
154	
118	
127	
124	
144	
148	
135	
131	
122	
113	
113	
122	
123	
125	
122	
124	
123	
131	
110	
132	
131	
147	
153	
141	
118	
98	
128	
113	
127	
139	
130	
126	
142	
95	
111	
108	
117	
130	
126	
130	
103	
106	
116	
127	
106	
94	
110	
123	
113	
135	
135	
120	
121	
141	
118	
120	
124	
112	
101	
110	
116	
116	
133	
129	
136	
117	
133	
116	
121	
139	
133	
116	
128	
134	
126	
146	
120	
130	
114	
123	
121	
117	
126	
119	
116	
143	
131	
121	
149	
120	
150	
132	
130	
127	
135	
109	
113	
136	
128	
125	
127	
137	
113	
127	
113	
119	
116	
119	
119	
125	
136	
128	
127	
105	
110	
134	
142	
113	
122	
117	
127	
120	
123	
95	
120	
118	
115	
119	
115	
102	
106	
112	
113	
110	
119	
119	
121	
115	
109	
128	
126	
122	
123	
120	
128	
132	
115	
111	
121	
124	
116	
130	
115	
129	
123	
108	
116	
106	
144	
135	
126	
120	
121	
128	
138	
131	
103	
132	
119	
128	
126	
114	
125	
127	
123	
122	
137	
125	
122	
106	
116	
114	
109	
139	
132	
124	
121	
121	
112	
104	
113	
124	
113	
116	
120	
121	
125	
101	
116	
123	
121	
117	
119	
128	
104	
136	
116	
122	
129	
105	
124	
104	
111	
101	
114	
107	
114	
121	
135	
104	
105	
118	
119	
116	
108	
127	
110	
108	
142	
113	
126	
95	
112	
109	
121	
105	
109	
131	
131	
106	
124	
129	
114	
104	
103	
113	
112	
110	
108	
104	
106	
112	
119	
112	
104	
100	
112	
119	
90	
123	
111	
104	
123	
132	
117	
110	
103	
114	
125	
107	
98	
124	
119	
107	
124	
95	
122	
111	
120	
116	
108	
116	
117	
117	
120	
103	
122	
116	
106	
106	
117	
113	
120	
84	
101	
114	
128	
116	
99	
80	
100	
115	
99	
111	
104	
107	
114	
118	
87	
123	
113	
102	
115	
117	
121	
116	
111	
92	
98	
120	
96	
121	
93	
115	
88	
121	
114	
89	
113	
117	
112	
110	
121	
111	
114	
106	
116	
114	
101	
117	
102	
112	
131	
89	
102	
108	
120	
107	
105	
91	
105	
112	
105	
80	
123	
116	
110	
105	
123	
104	
83	
122	
119	
115	
108	
100	
97	
92	
119	
108	
102	
96	
105	
102	
109	
102	
116	
108	
93	
103	
97	
102	
115	
116	
102	
113	
119	
105	
107	
98	
108	
111	
112	
131	
105	
85	
114	
93	
115	
110	
106	
111	
130	
95	
114	
106	
110	
99	
114	
99	
113	
100	
108	
111	
119	
96	
108	
108	
111	
125	
106	
101	
86	
109	
89	
103	
105	
110	
97	
93	
108	
106	
110	
97	
102	
113	
108	
92	
79	
92	
100	
104	
108	
100	
107	
93	
115	
98	
112	
85	
109	
114	
88	
102	
98	
108	
92	
109	
98	
90	
93	
108	
100	
108	
117	
98	
99	
89	
105	
94	
101	
108	
102	
108	
98	
103	
118	
105	
113	
95	
115	
95	
100	
96	
119	
110	
100	
109	
95	
94	
111	
95	
107	
108	
94	
89	
95	
96	
94	
114	
114	
98	
91	
109	
98	
93	
92	
109	
115	
107	
87	
90	
99	
89	
102	
93	
109	
120	
107	
103	
98	
102	
86	
76	
103	
104	
95	
96	
91	
89	
89	
101	
98	
105	
103	
120	
95	
94	
103	
104	
106	
82	
103	
95	
89	
95	
95	
92	
100	
95	
105	
95	
100	
105	
110	
99	
100	
97	
101	
89	
89	
103	
95	
120	
96	
99	
77	
87	
88	
83	
105	
89	
103	
87	
81	
98	
109	
95	
85	
96	
81	
102	
104	
103	
79	
79	
95	
102	
98	
103	
93	
85	
119	
95	
80	
92	
105	
92	
86	
95	
102	
105	
80	
108	
101	
98	
75	
105	
106	
96	
96	
86	
85	
97	
81	
104	
83	
101	
83	
90	
108	
109	
92	
94	
93	
94	
104	
94	
94	
82	
107	
88	
90	
97	
87	
104	
92	
86	
83	
79	
90	
91	
89	
98	
85	
93	
91	
102	
89	
99	
105	
92	
100	
108	
90	
83	
82	
95	
69	
110	
103	
81	
92	
77	
96	
82	
85	
97	
101	
100	
108	
99	
105	
85	
107	
99	
115	
75	
106	
86	
80	
92	
88	
92	
95	
91	
89	
80	
81	
89	
93	
88	
102	
86	
108	
95	
111	
101	
86	
102	
89	
103	
85	
81	
91	
79	
89	
102	
107	
95	
87	
94	
95	
76	
76	
82	
78	
92	
85	
80	
81	
94	
96	
83	
100	
105	
91	
91	
93	
97	
92	
75	
87	
105	
88	
89	
73	
100	
92	
72	
89	
79	
93	
98	
93	
82	
97	
91	
90	
101	
90	
88	
88	
111	
93	
85	
85	
99	
95	
91	
81	
76	
90	
110	
98	
85	
69	
84	
76	
85	
91	
87	
90	
78	
79	
104	
77	
92	
67	
98	
82	
84	
93	
95	
85	
79	
88	
92	
83	
93	
64	
86	
101	
80	
89	
82	
99	
97	
99	
95	
81	
76	
94	
88	
83	
96	
80	
95	
97	
94	
85	
84	
71	
94	
99	
75	
85	
82	
87	
78	
62	
83	
84	
92	
81	
82	
80	
101	
97	
89	
82	
84	
84	
90	
73	
85	
96	
71	
84	
80	
82	
88	
80	
78	
86	
86	
80	
73	
89	
74	
91	
98	
92	
82	
81	
89	
80	
91	
83	
83	
94	
84	
74	
86	
95	
102	
81	
89	
84	
84	
76	
96	
101	
85	
85	
98	
79	
77	
86	
80	
80	
91	
87	
104	
94	
85	
86	
93	
84	
76	
74	
76	
84	
84	
86	
99	
89	
80	
91	
110	
78	
91	
80	
88	
91	
73	
78	
69	
98	
79	
82	
75	
84	
96	
82	
81	
85	
96	
84	
69	
82	
65	
91	
78	
86	
89	
84	
84	
85	
84	
76	
83	
85	
92	
84	
80	
81	
80	
94	
67	
94	
66	
81	
85	
78	
88	
85	
81	
85	
83	
68	
85	
66	
81	
101	
66	
86	
85	
86	
90	
84	
88	
78	
90	
67	
66	
76	
80	
75	
72	
77	
78	
72	
68	
63	
72	
86	
91	
80	
99	
68	
81	
84	
81	
75	
93	
78	
82	
91	
69	
104	
65	
88	
95	
63	
85	
83	
98	
66	
80	
89	
79	
89	
71	
68	
81	
75	
92	
75	
83	
77	
77	
76	
79	
85	
76	
74	
70	
75	
74	
83	
88	
75	
70	
85	
67	
81	
93	
66	
92	
66	
67	
78	
91	
91	
96	
63	
91	
78	
75	
81	
83	
80	
77	
70	
78	
62	
74	
75	
77	
53	
68	
84	
63	
64	
71	
85	
73	
77	
70	
70	
85	
89	
77	
90	
80	
71	
72	
80	
77	
83	
79	
70	
67	
59	
82	
82	
86	
78	
58	
73	
73	
74	
67	
84	
81	
66	
77	
91	
78	
86	
91	
92	
79	
72	
75	
65	
77	
84	
80	
79	
74	
83	
82	
76	
87	
67	
68	
85	
71	
69	
65	
73	
87	
81	
72	
80	
57	
71	
71	
70	
76	
77	
76	
81	
67	
81	
77	
84	
69	
57	
84	
70	
70	
79	
87	
67	
71	
69	
82	
76	
68	
71	
74	
77	
82	
70	
84	
72	
74	
66	
74	
67	
61	
69	
87	
70	
84	
76	
74	
70	
72	
81	
70	
68	
76	
78	
70	
57	
77	
73	
81	
69	
64	
67	
78	
87	
69	
79	
73	
70	
67	
88	
77	
75	
66	
60	
71	
97	
78	
71	
70	
61	
87	
74	
83	
84	
68	
79	
84	
75	
76	
62	
61	
64	
69	
65	
59	
69	
67	
71	
74	
72	
64	
76	
86	
72	
84	
64	
72	
75	
69	
68	
77	
68	
84	
80	
56	
75	
61	
70	
53	
70	
72	
68	
62	
82	
82	
70	
72	
57	
70	
77	
60	
55	
67	
74	
64	
80	
75	
61	
79	
81	
59	
74	
63	
76	
88	
82	
76	
59	
86	
64	
58	
79	
70	
73	
75	
64	
90	
70	
55	
75	
73	
63	
62	
66	
68	
63	
64	
76	
77	
63	
74	
68	
80	
61	
73	
65	
61	
64	
58	
78	
64	
73	
88	
74	
78	
60	
74	
60	
65	
69	
66	
60	
79	
69	
73	
75	
63	
58	
74	
79	
74	
65	
64	
74	
75	
57	
68	
72	
85	
62	
67	
79	
72	
67	
57	
67	
62	
62	
76	
64	
75	
61	
66	
71	
65	
77	
88	
61	
72	
64	
69	
84	
78	
55	
58	
86	
74	
71	
66	
74	
80	
65	
73	
75	
73	
70	
64	
61	
70	
89	
64	
52	
59	
64	
57	
73	
66	
65	
63	
66	
88	
68	
68	
78	
58	
70	
73	
75	
75	
61	
58	
60	
69	
80	
62	
82	
61	
59	
61	
67	
71	
74	
71	
59	
57	
66	
77	
73	
72	
54	
66	
49	
64	
63	
61	
55	
68	
58	
62	
65	
61	
68	
51	
71	
72	
56	
80	
61	
70	
68	
73	
58	
68	
82	
65	
66	
70	
66	
57	
77	
74	
61	
53	
71	
75	
69	
47	
77	
60	
61	
55	
61	
63	
64	
56	
69	
58	
58	
73	
82	
85	
68	
70	
68	
59	
73	
56	
88	
75	
62	
54	
60	
69	
57	
63	
57	
72	
69	
73	
66	
63	
61	
52	
69	
51	
57	
64	
53	
61	
60	
61	
80	
70	
65	
62	
50	
73	
50	
53	
64	
61	
74	
64	
58	
61	
59	
75	
65	
75	
62	
64	
65	
59	
46	
65	
58	
57	
73	
70	
69	
63	
58	
68	
75	
66	
68	
51	
58	
68	
51	
63	
59	
61	
66	
84	
60	
71	
82	
59	
75	
52	
70	
44	
58	
42	
71	
77	
58	
63	
59	
60	
55	
57	
61	
54	
61	
68	
49	
54	
68	
56	
47	
70	
67	
57	
79	
58	
49	
52	
65	
54	
59	
70	
70	
62	
63	
61	
52	
63	
53	
51	
65	
61	
64	
60	
53	
67	
70	
66	
55	
64	
67	
65	
59	
64	
58	
63	
60	
75	
53	
58	
59	
58	
62	
61	
74	
65	
42	
57	
57	
68	
55	
60	
64	
73	
64	
63	
62	
57	
71	
62	
68	
47	
72	
72	
62	
61	
56	
73	
60	
69	
71	
74	
64	
70	
61	
64	
58	
64	
56	
57	
60	
58	
52	
46	
74	
63	
59	
65	
62	
70	
50	
73	
71	
61	
58	
55	
60	
54	
57	
54	
45	
66	
53	
52	
52	
57	
58	
68	
74	
61	
56	
60	
59	
63	
58	
60	
54	
58	
62	
60	
63	
46	
68	
67	
61	
59	
54	
54	
67	
49	
52	
52	
65	
63	
58	
59	
47	
68	
70	
45	
65	
60	
43	
47	
60	
51	
62	
53	
62	
66	
57	
54	
56	
60	
79	
70	
66	
66	
53	
61	
60	
57	
63	
65	
58	
42	
52	
48	
63	
50	
60	
63	
58	
51	
58	
71	
64	
62	
53	
56	
56	
51	
54	
68	
65	
70	
53	
52	
53	
73	
51	
63	
57	
59	
49	
50	
52	
64	
65	
59	
65	
62	
62	
43	
64	
57	
62	
58	
46	
42	
65	
61	
52	
62	
59	
62	
59	
61	
50	
60	
55	
54	
52	
43	
56	
52	
60	
55	
56	
62	
67	
64	
57	
72	
52	
68	
58	
42	
53	
50	
58	
70	
74	
70	
62	
59	
60	
57	
59	
62	
44	
54	
67	
68	
59	
69	
45	
52	
57	
51	
53	
38	
54	
46	
53	
53	
49	
51	
60	
50	
50	
50	
39	
72	
53	
50	
53	
61	
46	
73	
57	
58	
60	
57	
48	
73	
52	
65	
57	
57	
61	
53	
54	
56	
53	
63	
46	
57	
48	
60	
51	
48	
55	
65	
43	
66	
52	
61	
62	
66	
52	
32	
63	
52	
51	
63	
57	
48	
48	
50	
68	
59	
52	
69	
51	
47	
48	
50	
63	
55	
41	
46	
49	
40	
65	
62	
57	
56	
63	
56	
59	
61	
53	
54	
46	
51	
48	
51	
52	
59	
58	
44	
50	
60	
54	
47	
58	
58	
54	
50	
50	
56	
49	
55	
48	
49	
47	
59	
52	
51	
61	
52	
59	
49	
57	
58	
67	
61	
44	
53	
49	
55	
65	
52	
58	
70	
51	
64	
53	
60	
55	
46	
47	
63	
44	
46	
52	
55	
44	
59	
58	
49	
58	
51	
40	
53	
54	
50	
68	
48	
48	
59	
50	
57	
42	
54	
42	
48	
50	
56	
43	
55	
62	
68	
51	
54	
53	
50	
50	
66	
57	
58	
65	
65	
49	
57	
46	
53	
52	
48	
52	
51	
63	
38	
58	
46	
37	
65	
45	
57	
49	
40	
56	
58	
34	
57	
59	
41	
46	
50	
56	
44	
42	
52	
46	
51	
56	
43	
52	
61	
41	
53	
41	
60	
48	
51	
52	
53	
60	
70	
47	
36	
49	
47	
62	
40	
52	
56	
40	
56	
55	
50	
69	
44	
52	
57	
47	
42	
52	
51	
58	
45	
58	
47	
44	
45	
58	
54	
55	
48	
56	
43	
56	
30	
70	
48	
45	
55	
46	
43	
50	
52	
57	
52	
62	
60	
46	
62	
48	
60	
55	
52	
44	
38	
41	
50	
49	
47	
49	
62	
42	
49	
51	
47	
50	
49	
48	
51	
48	
68	
42	
55	
62	
56	
55	
53	
52	
40	
45	
51	
51	
57	
38	
50	
58	
39	
53	
44	
43	
50	
55	
60	
54	
56	
49	
40	
48	
68	
49	
51	
47	
41	
46	
51	
49	
48	
52	
61	
53	
59	
50	
55	
46	
51	
65	
43	
46	
41	
52	
48	
42	
40	
50	
57	
48	
53	
47	
45	
51	
39	
50	
37	
41	
49	
61	
37	
51	
45	
58	
60	
70	
48	
38	
50	
53	
57	
59	
57	
55	
48	
49	
53	
46	
50	
56	
53	
53	
59	
45	
64	
50	
51	
51	
52	
45	
35	
55	
48	
46	
36	
53	
47	
37	
48	
51	
55	
53	
47	
37	
52	
46	
48	
54	
51	
55	
50	
44	
60	
54	
49	
34	
57	
45	
57	
50	
52	
46	
47	
44	
53	
44	
43	
57	
39	
60	
46	
50	
42	
44	
50	
52	
50	
40	
49	
51	
39	
49	
51	
42	
41	
52	
57	
38	
45	
36	
48	
46	
45	
67	
45	
41	
31	
54	
52	
49	
55	
51	
44	
52	
48	
45	
49	
41	
51	
43	
48	
49	
40	
51	
53	
48	
41	
34	
43	
53	
48	
29	
44	
42	
45	
50	
47	
33	
43	
61	
48	
42	
44	
58	
39	
37	
50	
40	
51	
52	
40	
52	
45	
44	
51	
50	
58	
42	
39	
57	
43	
43	
40	
54	
34	
54	
50	
49	
38	
35	
46	
50	
45	
55	
38	
42	
48	
47	
52	
45	
44	
51	
33	
46	
42	
48	
50	
42	
39	
46	
50	
47	
39	
36	
47	
40	
44	
48	
56	
36	
46	
50	
53	
51	
39	
36	
45	
39	
38	
39	
35	
41	
44	
47	
42	
54	
47	
41	
42	
41	
50	
37	
66	
46	
44	
45	
54	
46	
48	
47	
50	
34	
44	
39	
56	
45	
58	
51	
55	
60	
59	
54	
53	
35	
47	
50	
37	
43	
49	
42	
31	
44	
49	
49	
43	
52	
44	
47	
47	
49	
44	
34	
40	
40	
40	
52	
47	
44	
46	
43	
42	
44	
58	
52	
46	
34	
44	
39	
45	
34	
48	
34	
35	
37	
50	
45	
43	
52	
44	
44	
48	
42	
41	
46	
38	
40	
52	
33	
38	
50	
46	
38	
53	
52	
43	
46	
49	
38	
36	
51	
37	
48	
42	
42	
46	
42	
40	
45	
39	
43	
35	
43	
42	
51	
27	
46	
34	
34	
45	
60	
46	
37	
47	
48	
46	
45	
42	
45	
47	
35	
42	
34	
41	
39	
48	
45	
39	
31	
42	
40	
41	
37	
63	
45	
40	
39	
61	
44	
35	
37	
23	
40	
46	
47	
56	
47	
34	
43	
46	
44	
52	
45	
49	
33	
41	
38	
38	
45	
45	
39	
46	
37	
25	
41	
36	
45	
46	
41	
33	
43	
50	
42	
42	
39	
40	
39	
46	
46	
47	
41	
50	
41	
45	
53	
48	
23	
45	
32	
47	
43	
40	
41	
44	
44	
31	
40	
41	
31	
38	
49	
48	
41	
41	
29	
45	
38	
45	
42	
43	
44	
38	
42	
40	
45	
40	
41	
33	
38	
41	
40	
28	
44	
48	
52	
59	
31	
42	
41	
33	
47	
46	
31	
41	
51	
56	
48	
36	
43	
40	
44	
45	
35	
47	
50	
40	
43	
39	
46	
42	
42	
40	
36	
38	
44	
36	
33	
33	
38	
31	
37	
42	
41	
41	
34	
43	
35	
37	
34	
35	
41	
49	
36	
39	
48	
40	
50	
43	
37	
45	
54	
49	
41	
39	
41	
34	
45	
37	
48	
45	
46	
40	
32	
47	
48	
44	
39	
38	
35	
31	
50	
48	
30	
54	
33	
27	
43	
44	
35	
43	
37	
40	
47	
40	
48	
51	
29	
38	
39	
39	
47	
37	
34	
39	
40	
35	
33	
40	
35	
32	
31	
35	
39	
57	
39	
42	
39	
43	
33	
43	
48	
53	
35	
47	
31	
39	
40	
48	
25	
32	
38	
45	
34	
34	
36	
47	
38	
36	
28	
35	
32	
49	
49	
35	
35	
46	
36	
41	
37	
21	
35	
38	
38	
53	
24	
31	
37	
43	
42	
42	
45	
36	
33	
36	
28	
39	
28	
31	
35	
44	
43	
43	
39	
30	
35	
33	
43	
46	
52	
27	
40	
29	
36	
46	
45	
45	
43	
26	
32	
41	
38	
41	
36	
29	
37	
31	
34	
41	
36	
25	
30	
44	
39	
47	
40	
37	
27	
28	
40	
35	
40	
36	
40	
38	
43	
38	
49	
41	
38	
35	
43	
37	
32	
31	
35	
34	
33	
31	
44	
32	
38	
32	
35	
40	
31	
28	
45	
35	
39	
28	
26	
39	
29	
43	
31	
36	
44	
34	
45	
36	
35	
32	
46	
41	
33	
28	
38	
36	
28	
34	
45	
31	
22	
45	
39	
35	
44	
37	
46	
38	
29	
30	
47	
40	
46	
38	
39	
39	
40	
28	
42	
46	
43	
29	
40	
32	
46	
29	
40	
35	
45	
41	
34	
45	
42	
32	
37	
39	
47	
35	
41	
23	
33	
31	
33	
34	
38	
30	
42	
30	
38	
52	
34	
37	
27	
34	
40	
34	
40	
27	
30	
36	
44	
42	
51	
28	
31	
26	
29	
38	
26	
34	
30	
29	
41	
43	
41	
36	
41	
42	
32	
37	
38	
34	
34	
33	
39	
31	
39	
44	
36	
30	
37	
42	
34	
33	
41	
33	
31	
40	
33	
33	
43	
28	
51	
33	
37	
35	
34	
29	
41	
50	
35	
37	
37	
36	
35	
38	
35	
35	
41	
38	
36	
36	
47	
34	
36	
40	
38	
33	
39	
31	
41	
35	
38	
39	
33	
32	
40	
44	
32	
37	
33	
29	
30	
27	
37	
38	
18	
42	
26	
26	
35	
38	
31	
28	
23	
36	
17	
34	
44	
42	
41	
42	
33	
30	
42	
38	
27	
35	
31	
45	
32	
38	
30	
33	
44	
38	
31	
35	
35	
40	
38	
31	
29	
28	
29	
35	
24	
22	
38	
25	
31	
45	
34	
39	
35	
45	
37	
33	
38	
38	
30	
32	
27	
43	
32	
36	
32	
38	
31	
35	
24	
35	
45	
33	
33	
40	
38	
27	
29	
30	
39	
33	
40	
44	
32	
37	
19	
35	
34	
46	
34	
30	
37	
38	
32	
39	
30	
28	
33	
37	
31	
38	
45	
34	
30	
25	
34	
41	
35	
33	
33	
35	
31	
44	
46	
36	
38	
32	
36	
30	
36	
31	
24	
36	
36	
29	
31	
27	
35	
24	
37	
33	
45	
39	
32	
37	
32	
34	
40	
30	
32	
27	
31	
33	
37	
45	
28	
27	
33	
43	
27	
29	
32	
30	
33	
35	
31	
38	
44	
49	
41	
25	
26	
29	
40	
38	
35	
29	
35	
31	
30	
50	
37	
39	
27	
51	
38	
31	
40	
40	
35	
30	
41	
36	
34	
37	
28	
32	
20	
28	
45	
39	
25	
30	
26	
24	
32	
30	
25	
29	
23	
35	
33	
36	
30	
31	
40	
40	
35	
29	
32	
39	
31	
36	
27	
34	
31	
28	
31	
27	
37	
44	
31	
27	
40	
29	
34	
30	
31	
27	
25	
25	
40	
29	
27	
37	
40	
37	
25	
37	
36	
36	
37	
21	
34	
25	
39	
36	
40	
33	
30	
43	
22	
31	
44	
36	
33	
24	
28	
34	
35	
36	
32	
25	
44	
28	
32	
46	
40	
20	
26	
35	
28	
39	
36	
31	
21	
22	
34	
34	
34	
28	
38	
35	
24	
29	
30	
30	
38	
19	
32	
28	
35	
29	
31	
29	
38	
36	
25	
28	
34	
25	
34	
22	
39	
41	
36	
39	
29	
32	
31	
33	
36	
30	
43	
26	
31	
42	
33	
40	
24	
37	
34	
34	
46	
34	
37	
22	
34	
29	
32	
42	
16	
30	
37	
31	
27	
28	
32	
34	
43	
34	
28	
23	
20	
38	
30	
30	
22	
31	
33	
34	
29	
34	
30	
32	
31	
42	
36	
32	
31	
32	
31	
33	
33	
37	
29	
19	
26	
30	
29	
36	
23	
29	
30	
33	
25	
32	
28	
31	
29	
32	
37	
26	
38	
34	
29	
35	
21	
39	
30	
27	
37	
32	
27	
41	
37	
24	
28	
33	
34	
22	
33	
32	
30	
33	
37	
33	
37	
28	
35	
32	
19	
28	
29	
31	
44	
33	
38	
31	
33	
39	
37	
28	
18	
32	
30	
28	
35	
40	
36	
39	
29	
32	
23	
33	
35	
31	
32	
31	
31	
48	
33	
30	
35	
27	
25	
31	
35	
29	
25	
32	
28	
26	
33	
32	
29	
36	
43	
40	
28	
25	
35	
26	
22	
37	
29	
37	
40	
28	
37	
33	
25	
29	
27	
31	
21	
27	
35	
35	
29	
20	
26	
39	
30	
30	
27	
38	
26	
32	
33	
21	
24	
32	
30	
30	
25	
25	
35	
28	
31	
30	
22	
24	
29	
23	
35	
29	
29	
32	
25	
33	
28	
32	
29	
38	
24	
23	
26	
30	
41	
23	
28	
33	
31	
30	
26	
25	
41	
17	
43	
26	
32	
28	
24	
36	
41	
36	
26	
26	
38	
33	
31	
32	
29	
26	
36	
29	
32	
30	
31	
31	
24	
29	
33	
33	
32	
37	
37	
28	
34	
30	
38	
26	
38	
23	
33	
34	
19	
26	
30	
38	
35	
35	
33	
23	
36	
41	
21	
30	
36	
29	
22	
25	
40	
23	
33	
33	
39	
38	
31	
29	
28	
27	
30	
24	
29	
37	
31	
27	
26	
40	
23	
36	
32	
36	
24	
31	
24	
31	
27	
28	
33	
19	
35	
21	
34	
34	
29	
24	
21	
28	
26	
22	
30	
30	
25	
30	
39	
24	
24	
31	
21	
27	
27	
28	
24	
37	
26	
27	
23	
23	
33	
27	
29	
20	
26	
42	
32	
29	
23	
24	
25	
32	
30	
24	
27	
34	
33	
39	
20	
27	
23	
32	
28	
22	
31	
25	
19	
26	
22	
22	
31	
29	
30	
33	
28	
28	
25	
23	
21	
26	
29	
29	
30	
33	
35	
35	
41	
17	
22	
30	
34	
28	
36	
21	
31	
27	
34	
19	
24	
26	
28	
39	
28	
38	
24	
34	
27	
30	
28	
33	
26	
23	
29	
27	
28	
32	
24	
21	
26	
40	
25	
26	
35	
35	
29	
30	
24	
37	
27	
23	
37	
22	
27	
28	
24	
23	
28	
19	
18	
24	
34	
27	
29	
22	
31	
31	
27	
20	
25	
33	
25	
28	
20	
27	
23	
35	
24	
26	
25	
28	
19	
27	
24	
32	
24	
38	
28	
20	
31	
40	
37	
27	
18	
32	
17	
30	
19	
24	
31	
24	
29	
28	
15	
23	
26	
29	
28	
25	
25	
23	
23	
28	
26	
31	
18	
28	
35	
36	
15	
25	
19	
25	
29	
21	
27	
29	
31	
14	
18	
30	
19	
31	
27	
26	
23	
31	
27	
26	
31	
36	
24	
33	
18	
22	
27	
30	
20	
33	
33	
23	
26	
27	
30	
26	
23	
29	
27	
17	
23	
29	
31	
32	
25	
25	
30	
22	
32	
22	
28	
31	
33	
19	
29	
29	
21	
37	
18	
23	
23	
23	
23	
33	
31	
30	
33	
24	
24	
32	
25	
28	
29	
32	
26	
30	
33	
27	
21	
22	
26	
23	
27	
25	
24	
25	
28	
16	
32	
20	
33	
20	
15	
39	
25	
28	
39	
32	
24	
28	
26	
32	
23	
30	
19	
23	
28	
24	
22	
36	
29	
28	
27	
27	
23	
34	
22	
27	
26	
25	
29	
31	
23	
36	
20	
25	
29	
24	
22	
29	
30	
26	
32	
25	
25	
24	
27	
31	
21	
30	
20	
27	
27	
28	
27	
24	
22	
26	
25	
29	
22	
25	
27	
26	
14	
21	
19	
25	
31	
27	
35	
31	
24	
31	
33	
25	
29	
24	
17	
25	
27	
29	
27	
27	
24	
34	
35	
23	
29	
26	
17	
24	
22	
26	
29	
30	
25	
26	
27	
40	
30	
32	
23	
37	
23	
21	
34	
31	
25	
23	
34	
28	
23	
28	
19	
28	
26	
20	
20	
21	
20	
24	
25	
32	
24	
25	
24	
31	
26	
27	
29	
19	
30	
36	
35	
29	
23	
30	
18	
26	
24	
26	
17	
23	
31	
20	
17	
19	
26	
21	
26	
31	
20	
27	
19	
26	
33	
24	
29	
25	
23	
12	
18	
27	
34	
22	
15	
29	
23	
19	
23	
21	
41	
24	
20	
22	
24	
24	
24	
21	
31	
17	
24	
22	
25	
26	
25	
33	
36	
33	
21	
29	
26	
25	
16	
27	
23	
34	
27	
20	
32	
24	
27	
29	
19	
22	
27	
32	
28	
19	
25	
24	
19	
29	
20	
32	
23	
33	
20	
33	
23	
18	
23	
25	
33	
22	
22	
20	
28	
25	
25	
15	
22	
23	
24	
18	
29	
24	
17	
25	
21	
26	
27	
24	
28	
25	
35	
32	
21	
25	
27	
32	
21	
21	
25	
34	
28	
29	
34	
19	
21	
30	
28	
27	
25	
31	
26	
33	
22	
15	
29	
26	
24	
15	
26	
22	
34	
18	
23	
26	
32	
29	
23	
21	
24	
16	
25	
13	
23	
25	
16	
15	
30	
24	
31	
27	
26	
27	
23	
22	
26	
31	
27	
34	
24	
27	
21	
24	
23	
22	
25	
29	
30	
21	
23	
25	
21	
21	
25	
25	
19	
32	
31	
26	
20	
23	
22	
27	
19	
28	
26	
23	
23	
18	
16	
11	
21	
12	
28	
30	
30	
21	
23	
24	
25	
21	
22	
14	
19	
25	
26	
25	
24	
18	
22	
30	
20	
21	
31	
20	
27	
30	
24	
18	
23	
21	
21	
29	
21	
20	
26	
27	
16	
16	
26	
16	
33	
17	
21	
27	
16	
23	
18	
22	
20	
23	
21	
26	
19	
29	
24	
30	
25	
20	
22	
29	
22	
17	
27	
24	
32	
14	
26	
23	
26	
18	
31	
19	
27	
22	
25	
25	
13	
21	
26	
19	
23	
31	
18	
25	
31	
24	
22	
24	
22	
36	
26	
23	
21	
34	
21	
33	
22	
23	
21	
17	
23	
