#PicoHarp 300  Histogram Data			04/21/2022 02:44:13 PM
#channels per curve
31250
#display curve no.
0	
#memory block no.
0	
#ns/channel
0.0320	
#counts
0	
2	
2	
0	
2	
1	
1	
3	
0	
0	
0	
2	
1	
3	
1	
1	
1	
1	
1	
1	
0	
0	
2	
0	
0	
3	
2	
0	
0	
1	
0	
0	
0	
0	
2	
2	
1	
1	
1	
0	
0	
1	
1	
0	
2	
0	
1	
2	
1	
0	
0	
1	
0	
1	
0	
1	
0	
0	
0	
0	
1	
1	
1	
1	
1	
1	
1	
0	
0	
0	
0	
1	
0	
0	
1	
0	
0	
1	
1	
0	
1	
2	
0	
0	
0	
0	
0	
2	
0	
1	
1	
1	
0	
0	
1	
0	
1	
0	
0	
1	
2	
0	
1	
0	
1	
0	
1	
0	
1	
1	
0	
2	
3	
1	
1	
0	
1	
1	
0	
2	
0	
1	
0	
1	
1	
0	
0	
1	
0	
0	
0	
1	
1	
0	
0	
1	
1	
0	
0	
0	
0	
2	
0	
0	
0	
1	
1	
0	
0	
0	
0	
1	
2	
1	
2	
2	
0	
2	
0	
1	
0	
0	
1	
0	
1	
0	
0	
1	
1	
1	
0	
0	
0	
0	
1	
0	
0	
0	
1	
2	
1	
1	
0	
1	
1	
1	
1	
0	
0	
1	
1	
1	
1	
1	
0	
1	
2	
0	
2	
1	
0	
1	
2	
0	
2	
1	
0	
1	
1	
0	
1	
0	
2	
1	
1	
1	
0	
1	
0	
0	
2	
0	
2	
1	
0	
1	
0	
1	
0	
1	
0	
0	
0	
1	
1	
1	
1	
1	
0	
0	
1	
1	
1	
0	
2	
0	
1	
3	
1	
0	
0	
0	
0	
3	
2	
1	
0	
0	
1	
2	
1	
1	
1	
0	
0	
0	
1	
0	
0	
1	
2	
0	
2	
2	
2	
0	
0	
0	
2	
2	
0	
2	
0	
2	
0	
1	
1	
1	
1	
2	
2	
1	
0	
1	
0	
0	
1	
2	
1	
2	
1	
1	
0	
1	
0	
0	
1	
1	
1	
0	
0	
1	
2	
1	
1	
2	
0	
0	
1	
2	
2	
1	
1	
1	
1	
2	
1	
0	
0	
0	
0	
1	
2	
2	
1	
0	
1	
1	
0	
0	
0	
0	
1	
1	
0	
0	
1	
1	
1	
1	
0	
0	
1	
3	
1	
2	
0	
1	
0	
1	
0	
0	
2	
0	
0	
0	
0	
1	
0	
0	
1	
3	
0	
1	
1	
2	
0	
0	
0	
0	
0	
2	
0	
1	
0	
0	
1	
0	
1	
0	
1	
0	
2	
0	
2	
0	
1	
0	
1	
2	
1	
1	
0	
3	
0	
2	
0	
1	
1	
1	
2	
2	
0	
0	
0	
2	
0	
0	
1	
3	
0	
1	
1	
0	
1	
0	
1	
0	
1	
1	
0	
0	
1	
1	
1	
2	
1	
2	
0	
0	
0	
0	
1	
0	
1	
1	
0	
0	
0	
0	
0	
0	
0	
1	
0	
0	
1	
0	
0	
1	
0	
1	
0	
1	
1	
1	
1	
0	
2	
1	
0	
0	
0	
2	
2	
3	
1	
0	
0	
0	
1	
2	
0	
0	
0	
1	
2	
1	
0	
2	
1	
0	
2	
0	
0	
0	
1	
1	
3	
2	
0	
0	
2	
0	
1	
0	
0	
0	
0	
0	
2	
2	
1	
1	
2	
1	
1	
1	
1	
2	
2	
1	
3	
0	
0	
1	
0	
0	
1	
0	
0	
0	
0	
2	
0	
1	
3	
1	
0	
2	
0	
4	
0	
1	
1	
1	
0	
0	
0	
0	
1	
1	
1	
1	
1	
2	
2	
1	
0	
1	
0	
0	
1	
1	
0	
2	
0	
2	
0	
2	
1	
0	
1	
1	
4	
1	
1	
0	
0	
1	
0	
1	
1	
0	
1	
2	
1	
2	
1	
3	
2	
2	
1	
0	
0	
0	
2	
0	
0	
3	
0	
2	
3	
0	
1	
0	
0	
2	
0	
0	
2	
1	
1	
1	
2	
0	
0	
1	
0	
0	
1	
2	
2	
1	
0	
1	
0	
0	
3	
0	
2	
2	
0	
0	
0	
1	
1	
2	
1	
1	
1	
1	
0	
0	
2	
2	
3	
3	
1	
1	
1	
0	
0	
0	
0	
1	
1	
1	
1	
0	
0	
2	
2	
0	
0	
0	
3	
0	
0	
0	
0	
0	
0	
2	
0	
0	
1	
0	
0	
0	
0	
0	
2	
0	
1	
0	
0	
1	
0	
0	
2	
0	
0	
0	
0	
0	
0	
0	
2	
0	
0	
1	
0	
1	
0	
0	
1	
0	
0	
2	
0	
1	
0	
1	
1	
0	
1	
0	
1	
1	
0	
2	
2	
0	
0	
1	
3	
1	
0	
0	
1	
2	
2	
0	
0	
1	
0	
1	
1	
0	
3	
0	
0	
1	
0	
1	
0	
1	
0	
3	
1	
0	
1	
1	
0	
0	
2	
2	
1	
2	
2	
0	
2	
0	
1	
0	
2	
1	
0	
1	
0	
0	
2	
0	
1	
0	
0	
0	
2	
1	
1	
2	
2	
1	
2	
0	
1	
1	
2	
0	
0	
1	
0	
0	
0	
0	
1	
1	
0	
1	
0	
0	
0	
1	
1	
0	
0	
0	
0	
1	
1	
1	
0	
1	
0	
2	
1	
0	
2	
1	
0	
0	
1	
1	
1	
1	
0	
2	
1	
0	
1	
2	
1	
1	
1	
0	
0	
0	
0	
1	
0	
2	
3	
1	
0	
0	
0	
0	
0	
1	
0	
0	
0	
1	
0	
0	
1	
1	
1	
0	
2	
2	
0	
0	
1	
0	
0	
2	
0	
2	
0	
0	
1	
1	
1	
0	
0	
0	
1	
0	
1	
2	
0	
1	
0	
0	
2	
1	
3	
1	
1	
1	
1	
3	
0	
0	
0	
0	
2	
0	
2	
0	
0	
1	
1	
2	
1	
2	
1	
1	
0	
0	
1	
1	
0	
3	
2	
0	
1	
0	
1	
1	
0	
4	
0	
0	
1	
0	
0	
1	
1	
2	
0	
0	
0	
2	
1	
1	
3	
0	
2	
1	
1	
0	
2	
1	
0	
0	
1	
1	
1	
0	
0	
2	
1	
0	
0	
2	
1	
1	
4	
1	
2	
2	
2	
3	
1	
1	
3	
2	
3	
3	
2	
5	
4	
3	
8	
8	
9	
8	
10	
7	
6	
15	
12	
11	
20	
24	
21	
29	
33	
37	
39	
45	
50	
51	
53	
56	
62	
54	
73	
81	
89	
79	
65	
88	
76	
103	
92	
111	
99	
99	
94	
102	
91	
103	
98	
94	
106	
120	
100	
118	
105	
100	
111	
100	
91	
103	
120	
104	
119	
125	
102	
122	
105	
106	
120	
118	
84	
103	
102	
99	
102	
100	
107	
110	
103	
75	
114	
107	
107	
99	
84	
89	
98	
104	
79	
107	
90	
94	
107	
90	
113	
79	
109	
90	
81	
96	
97	
105	
108	
89	
83	
107	
120	
96	
98	
99	
103	
109	
75	
92	
115	
88	
91	
87	
114	
83	
93	
92	
92	
83	
95	
106	
86	
88	
80	
81	
102	
99	
103	
93	
95	
94	
91	
74	
94	
89	
97	
91	
89	
87	
83	
97	
97	
84	
84	
79	
73	
95	
85	
85	
88	
86	
90	
85	
79	
84	
96	
84	
82	
83	
89	
95	
85	
74	
79	
71	
79	
81	
98	
74	
93	
107	
82	
77	
87	
87	
78	
69	
106	
75	
73	
91	
81	
98	
83	
81	
77	
79	
78	
95	
85	
88	
64	
78	
72	
107	
74	
95	
94	
69	
79	
80	
76	
82	
85	
76	
84	
84	
98	
83	
64	
74	
72	
77	
61	
77	
78	
70	
85	
77	
87	
75	
81	
72	
65	
91	
88	
71	
77	
88	
88	
87	
100	
88	
76	
84	
79	
84	
86	
71	
79	
73	
83	
82	
85	
65	
59	
69	
68	
72	
83	
77	
95	
82	
73	
71	
75	
76	
56	
77	
77	
84	
85	
70	
79	
68	
57	
84	
67	
71	
82	
67	
72	
64	
69	
72	
85	
54	
91	
84	
84	
78	
74	
85	
55	
76	
59	
79	
82	
71	
70	
74	
73	
60	
60	
60	
63	
64	
75	
67	
64	
72	
78	
61	
86	
71	
67	
70	
70	
68	
77	
71	
82	
71	
73	
69	
80	
72	
83	
62	
70	
72	
66	
68	
57	
70	
64	
82	
76	
77	
69	
57	
60	
68	
64	
61	
73	
69	
58	
62	
67	
65	
59	
70	
67	
65	
75	
65	
73	
65	
63	
76	
70	
48	
62	
68	
62	
61	
71	
67	
72	
65	
67	
66	
76	
67	
67	
78	
57	
69	
63	
72	
56	
63	
68	
58	
68	
71	
58	
59	
55	
66	
51	
79	
65	
71	
61	
48	
57	
61	
63	
56	
58	
76	
68	
66	
74	
64	
78	
49	
58	
53	
75	
75	
63	
82	
51	
66	
57	
60	
73	
54	
54	
64	
66	
63	
69	
60	
64	
64	
67	
57	
73	
65	
76	
50	
75	
56	
58	
73	
60	
79	
65	
58	
66	
67	
66	
73	
65	
68	
51	
55	
66	
82	
78	
62	
65	
68	
47	
77	
63	
79	
68	
56	
64	
62	
48	
61	
70	
72	
58	
59	
70	
63	
67	
58	
65	
58	
68	
57	
61	
62	
70	
62	
66	
65	
63	
52	
54	
69	
71	
45	
56	
54	
55	
70	
64	
54	
60	
62	
62	
58	
66	
69	
53	
59	
56	
53	
70	
59	
64	
60	
51	
54	
40	
61	
41	
79	
59	
57	
74	
61	
50	
61	
67	
59	
55	
71	
63	
69	
55	
65	
45	
44	
53	
63	
56	
53	
42	
61	
65	
65	
53	
62	
55	
59	
58	
60	
50	
53	
56	
60	
60	
65	
39	
65	
52	
52	
63	
52	
51	
47	
59	
62	
61	
40	
58	
68	
56	
50	
48	
51	
49	
59	
55	
50	
46	
67	
49	
46	
57	
51	
61	
52	
56	
46	
50	
46	
61	
51	
50	
51	
70	
51	
41	
49	
59	
50	
51	
46	
48	
49	
51	
40	
39	
49	
54	
50	
41	
67	
45	
59	
52	
59	
55	
63	
45	
49	
71	
48	
42	
54	
59	
49	
57	
46	
64	
50	
49	
56	
57	
55	
55	
47	
49	
68	
51	
49	
53	
39	
56	
68	
50	
42	
56	
49	
52	
54	
39	
47	
55	
41	
58	
35	
49	
61	
63	
44	
57	
49	
46	
53	
52	
49	
38	
54	
56	
58	
40	
55	
49	
44	
53	
52	
59	
46	
56	
57	
53	
60	
41	
55	
57	
57	
40	
39	
34	
63	
43	
39	
58	
65	
53	
38	
45	
40	
60	
43	
51	
53	
51	
45	
54	
62	
52	
39	
50	
48	
55	
45	
46	
52	
47	
45	
46	
51	
42	
59	
60	
46	
54	
68	
52	
48	
50	
55	
49	
62	
54	
56	
49	
40	
46	
53	
52	
43	
56	
55	
47	
49	
55	
45	
47	
57	
40	
44	
43	
52	
54	
50	
45	
48	
43	
42	
55	
51	
53	
50	
45	
41	
57	
42	
51	
45	
55	
50	
62	
47	
49	
51	
46	
49	
46	
61	
45	
52	
33	
43	
52	
51	
40	
41	
49	
53	
48	
51	
46	
50	
48	
40	
44	
54	
46	
49	
46	
45	
58	
43	
37	
61	
56	
61	
56	
50	
44	
42	
46	
50	
54	
45	
59	
47	
53	
51	
41	
46	
38	
56	
41	
49	
56	
53	
56	
40	
53	
49	
35	
45	
41	
56	
53	
44	
44	
43	
49	
47	
46	
39	
39	
58	
43	
46	
37	
43	
50	
37	
45	
49	
39	
58	
45	
40	
36	
41	
47	
47	
36	
42	
39	
54	
41	
46	
56	
39	
44	
46	
47	
47	
53	
42	
44	
47	
37	
39	
29	
51	
39	
40	
49	
34	
48	
40	
48	
37	
40	
43	
54	
34	
42	
34	
43	
51	
44	
38	
56	
40	
39	
40	
51	
48	
48	
37	
52	
46	
54	
51	
49	
43	
45	
50	
38	
33	
40	
35	
44	
41	
43	
42	
46	
50	
42	
42	
47	
47	
50	
48	
56	
48	
47	
57	
45	
52	
38	
49	
52	
44	
42	
42	
54	
46	
39	
45	
49	
49	
32	
54	
37	
44	
43	
40	
44	
47	
36	
43	
37	
36	
40	
32	
38	
56	
30	
29	
53	
35	
35	
43	
62	
39	
45	
49	
52	
40	
24	
48	
41	
40	
32	
36	
35	
41	
48	
48	
44	
44	
37	
47	
35	
36	
42	
41	
37	
46	
47	
54	
51	
36	
30	
35	
39	
43	
32	
49	
29	
33	
42	
44	
60	
37	
35	
42	
37	
34	
40	
33	
48	
52	
40	
41	
46	
35	
44	
40	
42	
50	
48	
41	
47	
55	
52	
42	
28	
37	
48	
40	
37	
52	
34	
39	
51	
44	
41	
45	
39	
46	
46	
38	
37	
43	
40	
35	
57	
42	
49	
36	
34	
41	
40	
50	
34	
36	
44	
32	
35	
44	
37	
39	
36	
51	
33	
40	
60	
34	
45	
49	
42	
52	
31	
39	
32	
32	
43	
39	
38	
45	
52	
33	
45	
37	
37	
34	
37	
26	
51	
38	
50	
43	
41	
32	
55	
35	
47	
31	
47	
38	
34	
36	
52	
35	
35	
36	
36	
39	
47	
32	
44	
39	
40	
42	
33	
41	
34	
46	
42	
39	
31	
47	
31	
42	
49	
36	
31	
54	
47	
35	
37	
37	
36	
37	
32	
32	
44	
47	
35	
40	
24	
45	
44	
47	
38	
38	
34	
37	
32	
31	
32	
38	
36	
35	
36	
41	
28	
45	
38	
30	
38	
34	
30	
41	
46	
44	
49	
40	
26	
29	
50	
35	
32	
34	
41	
33	
36	
35	
39	
40	
29	
36	
37	
41	
35	
34	
35	
42	
33	
35	
33	
35	
36	
34	
37	
33	
34	
33	
34	
43	
33	
42	
23	
38	
29	
44	
38	
33	
36	
38	
38	
39	
51	
45	
33	
30	
38	
44	
33	
42	
33	
30	
38	
33	
26	
43	
43	
23	
26	
36	
34	
28	
42	
42	
35	
47	
35	
34	
24	
23	
38	
41	
29	
40	
44	
43	
39	
42	
32	
34	
40	
41	
30	
39	
47	
36	
40	
34	
36	
41	
29	
37	
41	
39	
38	
48	
36	
44	
30	
36	
34	
38	
35	
37	
34	
34	
37	
42	
27	
30	
30	
30	
31	
37	
24	
30	
34	
38	
38	
37	
38	
31	
28	
28	
27	
33	
28	
34	
44	
32	
32	
35	
44	
29	
27	
27	
26	
36	
28	
43	
24	
46	
35	
35	
33	
28	
37	
37	
34	
45	
32	
37	
43	
33	
30	
28	
29	
29	
30	
37	
27	
27	
29	
39	
40	
31	
28	
29	
23	
36	
36	
30	
37	
39	
32	
24	
35	
40	
41	
40	
34	
35	
29	
39	
38	
32	
33	
26	
39	
35	
36	
24	
40	
24	
35	
28	
38	
34	
40	
35	
37	
25	
37	
32	
32	
34	
34	
34	
22	
26	
29	
35	
27	
29	
47	
27	
29	
32	
34	
20	
38	
26	
29	
31	
29	
40	
37	
38	
34	
30	
31	
30	
37	
33	
33	
37	
32	
32	
29	
31	
33	
28	
29	
35	
32	
42	
29	
46	
28	
32	
31	
32	
36	
21	
33	
37	
29	
37	
30	
36	
40	
28	
27	
31	
33	
38	
32	
27	
25	
23	
34	
34	
30	
30	
44	
31	
38	
27	
26	
35	
48	
29	
38	
45	
33	
19	
31	
33	
24	
26	
27	
39	
28	
33	
27	
29	
32	
36	
34	
26	
19	
31	
33	
37	
37	
34	
35	
22	
27	
30	
30	
38	
29	
26	
37	
26	
29	
27	
30	
36	
27	
24	
23	
34	
35	
29	
27	
28	
32	
31	
25	
23	
29	
35	
32	
27	
32	
30	
35	
38	
30	
26	
28	
31	
29	
32	
26	
33	
29	
30	
20	
33	
31	
22	
28	
33	
28	
23	
37	
33	
27	
44	
22	
30	
31	
31	
31	
25	
27	
35	
28	
28	
29	
32	
30	
25	
30	
35	
34	
32	
29	
35	
31	
30	
45	
30	
32	
26	
29	
24	
29	
28	
27	
32	
23	
24	
30	
20	
35	
26	
28	
28	
28	
22	
24	
24	
21	
18	
33	
31	
28	
29	
37	
29	
27	
24	
26	
42	
19	
30	
25	
24	
19	
33	
36	
21	
28	
41	
26	
25	
26	
26	
30	
28	
30	
34	
33	
39	
30	
21	
37	
27	
27	
32	
27	
29	
28	
30	
27	
23	
29	
33	
35	
23	
21	
21	
36	
35	
22	
24	
39	
27	
17	
27	
34	
35	
36	
30	
24	
23	
36	
27	
30	
28	
33	
40	
24	
29	
34	
38	
29	
30	
30	
25	
33	
24	
25	
26	
23	
18	
30	
20	
27	
28	
22	
31	
26	
29	
26	
33	
32	
30	
29	
34	
23	
21	
25	
25	
32	
25	
22	
28	
29	
39	
36	
25	
21	
16	
37	
28	
39	
26	
35	
30	
32	
23	
21	
31	
25	
26	
31	
21	
27	
31	
26	
31	
26	
38	
33	
32	
20	
21	
29	
28	
28	
26	
25	
31	
22	
27	
32	
23	
27	
26	
22	
31	
21	
20	
16	
19	
29	
28	
31	
29	
31	
15	
24	
32	
36	
37	
21	
25	
25	
24	
31	
20	
34	
25	
27	
35	
22	
23	
28	
32	
33	
22	
25	
21	
24	
36	
28	
23	
34	
28	
25	
29	
29	
23	
28	
23	
27	
20	
23	
24	
25	
20	
27	
36	
25	
22	
32	
25	
32	
34	
16	
32	
20	
30	
25	
23	
25	
24	
21	
30	
16	
24	
26	
27	
28	
24	
26	
31	
26	
23	
24	
29	
23	
16	
21	
27	
36	
30	
28	
34	
34	
31	
29	
23	
29	
27	
15	
26	
35	
23	
22	
42	
15	
20	
26	
28	
24	
32	
25	
28	
17	
33	
33	
31	
22	
28	
24	
25	
22	
23	
26	
32	
28	
32	
18	
31	
28	
24	
28	
20	
27	
22	
24	
28	
28	
32	
27	
19	
25	
16	
21	
27	
26	
33	
21	
21	
20	
17	
28	
30	
24	
27	
25	
22	
29	
20	
29	
19	
23	
32	
25	
28	
27	
22	
19	
23	
27	
29	
21	
17	
27	
27	
29	
26	
28	
33	
24	
33	
29	
26	
26	
16	
21	
27	
29	
26	
28	
22	
23	
23	
26	
32	
25	
20	
27	
28	
21	
32	
28	
14	
19	
29	
26	
14	
22	
25	
21	
20	
33	
31	
21	
22	
18	
23	
20	
21	
22	
27	
23	
22	
35	
34	
35	
24	
28	
20	
25	
20	
17	
18	
20	
23	
22	
33	
40	
20	
24	
24	
23	
20	
18	
21	
23	
20	
23	
29	
27	
24	
27	
21	
18	
22	
27	
22	
26	
28	
24	
26	
15	
15	
20	
25	
29	
28	
21	
31	
20	
20	
20	
28	
28	
26	
23	
26	
22	
18	
22	
20	
22	
25	
25	
27	
26	
28	
23	
27	
19	
18	
19	
27	
17	
40	
29	
24	
26	
20	
16	
21	
34	
24	
16	
23	
20	
24	
14	
29	
17	
18	
23	
27	
22	
13	
28	
25	
26	
23	
18	
18	
27	
18	
21	
29	
26	
17	
20	
18	
13	
20	
15	
19	
23	
20	
28	
20	
25	
17	
21	
17	
30	
17	
18	
21	
23	
32	
21	
18	
19	
21	
24	
22	
15	
22	
35	
23	
22	
18	
30	
30	
20	
22	
20	
21	
24	
20	
24	
28	
14	
26	
18	
10	
26	
20	
20	
27	
16	
18	
23	
28	
20	
18	
23	
15	
13	
21	
13	
15	
31	
28	
27	
29	
19	
13	
22	
15	
22	
15	
15	
19	
19	
22	
30	
21	
22	
16	
22	
19	
25	
25	
16	
26	
19	
24	
23	
14	
18	
12	
19	
11	
17	
17	
23	
36	
24	
20	
15	
27	
13	
14	
26	
29	
22	
13	
21	
22	
15	
14	
27	
21	
28	
28	
22	
20	
23	
25	
16	
26	
21	
23	
23	
20	
20	
20	
17	
23	
25	
19	
20	
17	
19	
29	
26	
22	
19	
30	
21	
24	
19	
18	
15	
9	
19	
19	
22	
26	
31	
22	
26	
20	
18	
18	
27	
11	
26	
18	
27	
17	
22	
24	
14	
18	
19	
19	
26	
28	
25	
19	
19	
18	
29	
22	
19	
21	
31	
20	
20	
23	
20	
24	
26	
25	
17	
27	
20	
14	
29	
24	
23	
25	
18	
18	
24	
17	
19	
20	
20	
15	
20	
19	
22	
25	
23	
17	
28	
17	
17	
27	
24	
23	
21	
18	
20	
22	
22	
20	
27	
23	
18	
24	
10	
18	
18	
18	
26	
21	
29	
19	
22	
9	
16	
24	
21	
19	
17	
17	
18	
22	
18	
22	
17	
22	
23	
24	
24	
22	
14	
18	
20	
20	
27	
15	
18	
13	
25	
21	
27	
25	
19	
23	
24	
13	
24	
23	
20	
17	
24	
19	
18	
17	
18	
20	
22	
15	
25	
17	
22	
18	
24	
14	
16	
21	
24	
17	
18	
18	
16	
21	
30	
20	
30	
23	
19	
24	
19	
19	
20	
26	
20	
15	
19	
22	
17	
21	
20	
26	
21	
15	
23	
27	
22	
19	
30	
15	
19	
27	
20	
14	
20	
16	
22	
17	
20	
21	
27	
19	
23	
16	
15	
14	
27	
20	
19	
17	
13	
25	
19	
18	
25	
23	
15	
20	
24	
8	
15	
22	
24	
9	
16	
29	
17	
24	
21	
17	
17	
25	
16	
10	
23	
20	
22	
19	
22	
19	
18	
21	
17	
17	
13	
14	
17	
17	
16	
16	
17	
19	
19	
21	
18	
16	
22	
22	
19	
23	
18	
12	
17	
21	
26	
14	
17	
21	
25	
19	
26	
17	
22	
19	
30	
14	
18	
16	
16	
22	
18	
15	
17	
14	
16	
20	
14	
17	
17	
19	
19	
19	
23	
23	
21	
20	
13	
15	
17	
17	
13	
20	
22	
16	
23	
16	
22	
20	
26	
17	
24	
19	
12	
19	
19	
13	
21	
22	
21	
16	
15	
11	
23	
15	
22	
20	
23	
18	
18	
20	
13	
18	
18	
19	
15	
16	
15	
15	
19	
24	
26	
19	
21	
20	
20	
10	
16	
17	
17	
17	
20	
17	
22	
18	
23	
20	
14	
19	
32	
21	
18	
22	
18	
22	
21	
26	
14	
18	
11	
16	
20	
5	
21	
25	
22	
12	
13	
18	
12	
20	
19	
24	
18	
20	
12	
18	
20	
18	
17	
18	
21	
9	
23	
22	
15	
15	
19	
22	
16	
16	
13	
18	
24	
16	
18	
16	
20	
15	
15	
20	
20	
18	
17	
18	
13	
15	
13	
18	
24	
17	
16	
13	
18	
18	
15	
17	
21	
18	
18	
19	
18	
17	
18	
19	
22	
25	
20	
20	
19	
15	
16	
15	
18	
21	
33	
17	
11	
14	
20	
15	
13	
13	
18	
18	
18	
21	
15	
16	
22	
24	
20	
23	
20	
28	
21	
18	
14	
19	
11	
22	
16	
13	
17	
13	
19	
17	
7	
17	
20	
15	
20	
13	
14	
28	
15	
21	
19	
20	
19	
17	
28	
18	
17	
14	
17	
19	
15	
17	
15	
13	
16	
13	
20	
15	
19	
20	
11	
23	
11	
18	
17	
14	
23	
12	
13	
21	
20	
18	
19	
27	
17	
17	
17	
18	
16	
21	
21	
15	
13	
14	
15	
19	
14	
8	
14	
20	
15	
20	
11	
23	
15	
13	
19	
15	
16	
18	
21	
17	
16	
16	
18	
21	
21	
15	
15	
20	
27	
17	
19	
18	
26	
12	
12	
18	
17	
11	
12	
15	
13	
13	
14	
18	
20	
13	
22	
17	
20	
22	
18	
20	
19	
22	
16	
12	
18	
15	
19	
15	
8	
17	
17	
15	
18	
11	
21	
19	
14	
20	
19	
15	
17	
14	
17	
17	
20	
20	
14	
16	
19	
19	
20	
13	
21	
19	
18	
14	
14	
25	
22	
13	
14	
13	
19	
26	
19	
15	
18	
18	
22	
19	
14	
14	
13	
14	
14	
17	
19	
19	
14	
15	
13	
9	
18	
12	
12	
12	
18	
17	
20	
18	
27	
16	
10	
16	
14	
22	
27	
16	
14	
18	
8	
20	
11	
13	
17	
15	
30	
16	
24	
15	
13	
15	
12	
18	
21	
11	
13	
16	
14	
18	
19	
19	
14	
19	
22	
16	
14	
15	
12	
16	
13	
16	
18	
15	
15	
29	
15	
16	
18	
14	
15	
13	
15	
9	
15	
23	
20	
15	
9	
15	
9	
18	
13	
20	
20	
12	
13	
14	
11	
11	
21	
17	
24	
19	
18	
17	
15	
15	
15	
20	
17	
16	
10	
12	
16	
21	
14	
17	
26	
9	
14	
12	
12	
17	
13	
12	
14	
19	
11	
23	
6	
15	
16	
27	
15	
15	
11	
10	
17	
17	
15	
19	
16	
16	
22	
10	
17	
18	
15	
11	
19	
16	
16	
13	
18	
22	
16	
13	
16	
17	
13	
13	
16	
15	
12	
17	
15	
20	
20	
18	
15	
13	
17	
12	
15	
11	
16	
17	
18	
17	
12	
14	
8	
8	
13	
15	
19	
16	
12	
16	
18	
9	
19	
16	
12	
11	
16	
16	
11	
17	
17	
16	
11	
15	
10	
22	
17	
17	
12	
13	
16	
16	
11	
15	
18	
11	
13	
13	
17	
7	
17	
19	
17	
15	
16	
15	
10	
20	
12	
21	
9	
16	
19	
16	
16	
5	
18	
14	
17	
19	
14	
22	
19	
18	
14	
7	
16	
20	
17	
12	
12	
14	
11	
12	
14	
20	
21	
7	
20	
14	
10	
15	
12	
14	
26	
18	
9	
11	
23	
19	
5	
6	
15	
13	
18	
14	
15	
17	
10	
15	
10	
20	
13	
10	
23	
14	
22	
13	
10	
19	
16	
15	
11	
14	
6	
19	
14	
12	
7	
15	
11	
10	
25	
14	
15	
12	
15	
13	
16	
21	
11	
15	
10	
10	
16	
17	
9	
11	
17	
16	
11	
16	
16	
18	
17	
15	
20	
22	
14	
13	
13	
15	
12	
11	
11	
15	
13	
8	
14	
16	
14	
15	
16	
14	
23	
15	
9	
20	
24	
14	
18	
17	
19	
14	
20	
13	
16	
17	
16	
19	
20	
19	
18	
10	
12	
10	
11	
20	
18	
15	
13	
11	
12	
9	
9	
21	
14	
15	
15	
10	
20	
16	
11	
20	
12	
12	
9	
12	
21	
16	
13	
11	
11	
13	
8	
13	
17	
15	
12	
15	
11	
11	
13	
10	
13	
20	
17	
26	
9	
15	
15	
11	
7	
17	
11	
16	
18	
8	
9	
12	
16	
19	
11	
17	
16	
13	
16	
12	
13	
10	
12	
9	
16	
20	
17	
14	
12	
16	
9	
16	
11	
10	
15	
9	
11	
13	
15	
12	
21	
16	
15	
20	
16	
9	
7	
12	
11	
16	
12	
5	
12	
17	
17	
11	
14	
12	
11	
11	
21	
14	
16	
13	
15	
18	
17	
19	
10	
19	
12	
8	
15	
18	
15	
11	
16	
13	
13	
15	
15	
13	
14	
13	
18	
19	
9	
8	
12	
18	
6	
18	
11	
15	
15	
15	
14	
17	
13	
15	
18	
17	
14	
13	
10	
17	
13	
12	
11	
12	
10	
13	
8	
8	
20	
6	
15	
16	
10	
15	
14	
10	
13	
15	
16	
13	
15	
13	
16	
12	
16	
15	
12	
8	
14	
12	
13	
18	
11	
7	
11	
10	
13	
16	
17	
10	
18	
11	
12	
15	
10	
15	
15	
8	
22	
12	
6	
12	
7	
10	
17	
8	
11	
14	
12	
9	
16	
7	
18	
9	
15	
16	
18	
15	
11	
14	
7	
12	
16	
13	
6	
16	
13	
10	
4	
14	
14	
13	
15	
13	
16	
20	
13	
14	
18	
19	
9	
12	
12	
24	
16	
19	
10	
10	
17	
8	
9	
13	
14	
13	
10	
9	
5	
18	
9	
13	
14	
9	
18	
10	
13	
10	
19	
7	
18	
2	
9	
9	
20	
18	
9	
12	
19	
19	
13	
9	
17	
14	
13	
9	
17	
17	
8	
22	
14	
11	
14	
8	
12	
7	
10	
14	
15	
11	
16	
7	
17	
15	
9	
14	
10	
6	
15	
11	
13	
12	
18	
12	
17	
20	
13	
13	
12	
14	
17	
15	
12	
13	
9	
5	
13	
15	
14	
11	
16	
9	
10	
12	
14	
20	
13	
9	
21	
19	
16	
8	
16	
9	
10	
21	
14	
13	
21	
10	
11	
5	
15	
15	
12	
12	
16	
15	
16	
14	
12	
11	
17	
14	
8	
10	
8	
16	
6	
13	
6	
11	
11	
11	
14	
12	
12	
18	
20	
12	
14	
17	
11	
8	
8	
7	
17	
12	
18	
19	
15	
10	
12	
14	
14	
12	
13	
13	
9	
12	
10	
9	
16	
12	
14	
14	
13	
17	
12	
15	
20	
11	
14	
13	
14	
11	
11	
15	
15	
10	
8	
11	
11	
7	
15	
14	
15	
8	
14	
12	
13	
9	
12	
9	
14	
20	
11	
13	
11	
9	
8	
9	
11	
8	
18	
18	
15	
12	
9	
12	
9	
14	
17	
13	
12	
8	
15	
18	
9	
10	
22	
16	
9	
9	
12	
12	
13	
13	
10	
8	
17	
8	
19	
14	
13	
7	
12	
8	
8	
15	
7	
9	
12	
13	
9	
13	
9	
7	
8	
12	
18	
13	
8	
10	
7	
4	
11	
14	
14	
14	
11	
12	
11	
12	
13	
22	
12	
16	
17	
13	
11	
10	
9	
16	
16	
8	
13	
9	
16	
13	
12	
17	
12	
9	
12	
11	
5	
13	
11	
7	
6	
11	
10	
12	
8	
14	
13	
10	
12	
10	
11	
11	
10	
19	
8	
4	
14	
13	
16	
10	
14	
19	
6	
7	
13	
17	
14	
17	
15	
12	
10	
9	
10	
12	
14	
9	
17	
12	
17	
6	
7	
7	
8	
10	
9	
13	
15	
14	
7	
18	
14	
15	
10	
6	
13	
13	
12	
15	
15	
15	
8	
12	
15	
5	
18	
12	
14	
8	
13	
13	
15	
11	
13	
19	
9	
6	
11	
9	
11	
7	
19	
14	
9	
13	
5	
14	
16	
10	
11	
8	
12	
13	
12	
14	
11	
11	
12	
15	
10	
9	
18	
8	
10	
9	
8	
8	
8	
14	
7	
7	
10	
8	
12	
10	
13	
11	
9	
15	
13	
7	
12	
13	
13	
9	
17	
11	
11	
11	
9	
9	
11	
7	
14	
11	
11	
14	
11	
10	
19	
10	
13	
11	
12	
9	
12	
13	
13	
9	
11	
8	
13	
13	
14	
8	
15	
9	
19	
6	
9	
14	
12	
5	
11	
6	
15	
8	
11	
13	
13	
19	
7	
10	
10	
10	
13	
11	
6	
11	
10	
14	
9	
10	
19	
11	
7	
11	
10	
13	
20	
6	
16	
8	
14	
10	
8	
8	
13	
9	
9	
7	
10	
6	
17	
8	
12	
13	
10	
9	
15	
9	
11	
14	
7	
16	
8	
8	
15	
6	
16	
8	
13	
7	
7	
8	
19	
11	
10	
9	
13	
17	
10	
14	
10	
9	
18	
12	
9	
7	
9	
11	
7	
11	
15	
12	
15	
9	
8	
14	
17	
11	
10	
4	
12	
12	
6	
8	
14	
8	
11	
13	
11	
17	
8	
5	
13	
5	
7	
10	
7	
14	
11	
14	
8	
7	
15	
9	
17	
8	
19	
11	
6	
10	
9	
12	
11	
11	
8	
9	
13	
3	
6	
9	
7	
6	
14	
10	
15	
12	
18	
9	
10	
12	
14	
10	
17	
5	
14	
12	
11	
5	
12	
12	
11	
6	
14	
14	
18	
14	
17	
13	
11	
12	
4	
6	
8	
12	
9	
14	
10	
10	
10	
13	
6	
9	
13	
8	
8	
9	
14	
11	
6	
18	
10	
12	
12	
5	
11	
12	
10	
10	
7	
8	
6	
5	
14	
6	
9	
7	
14	
12	
9	
13	
6	
11	
9	
10	
15	
13	
11	
11	
10	
3	
12	
7	
10	
10	
15	
13	
7	
13	
10	
8	
7	
12	
16	
18	
4	
10	
20	
8	
11	
12	
13	
7	
6	
8	
10	
9	
7	
8	
7	
11	
15	
6	
8	
20	
11	
15	
17	
3	
6	
8	
12	
9	
16	
11	
17	
13	
8	
8	
11	
11	
11	
6	
15	
17	
14	
9	
11	
13	
16	
14	
9	
11	
12	
6	
9	
8	
9	
5	
7	
4	
8	
8	
9	
16	
8	
11	
7	
11	
10	
10	
13	
10	
14	
15	
10	
11	
11	
8	
11	
12	
7	
5	
8	
11	
4	
12	
16	
19	
17	
4	
13	
14	
11	
10	
8	
12	
8	
7	
9	
8	
6	
7	
12	
8	
11	
8	
13	
10	
10	
10	
7	
9	
8	
15	
4	
5	
6	
10	
11	
6	
13	
6	
11	
9	
7	
11	
10	
6	
10	
8	
7	
5	
9	
9	
7	
10	
7	
12	
12	
6	
11	
13	
12	
7	
13	
15	
8	
6	
13	
8	
14	
9	
7	
8	
10	
9	
7	
7	
8	
6	
8	
12	
9	
14	
12	
13	
7	
12	
9	
8	
8	
9	
5	
6	
8	
9	
7	
7	
13	
9	
8	
9	
18	
8	
5	
13	
7	
11	
8	
12	
13	
7	
8	
11	
12	
9	
14	
12	
6	
9	
3	
12	
13	
9	
11	
9	
8	
8	
7	
7	
16	
5	
11	
10	
18	
8	
13	
5	
6	
4	
6	
5	
12	
5	
7	
4	
15	
11	
15	
18	
6	
9	
1	
6	
7	
11	
11	
12	
16	
7	
8	
11	
7	
7	
12	
8	
8	
6	
10	
8	
6	
10	
6	
8	
11	
12	
9	
7	
11	
8	
12	
11	
12	
12	
8	
7	
15	
7	
6	
3	
12	
11	
11	
9	
7	
15	
8	
7	
10	
5	
14	
10	
7	
6	
16	
9	
10	
11	
16	
10	
11	
13	
9	
12	
10	
9	
14	
4	
11	
7	
10	
11	
12	
16	
13	
13	
10	
19	
5	
9	
7	
8	
12	
6	
8	
4	
6	
9	
6	
13	
2	
8	
10	
8	
10	
9	
10	
11	
6	
6	
11	
8	
3	
8	
7	
12	
10	
7	
9	
10	
7	
17	
10	
5	
10	
8	
9	
10	
9	
10	
12	
6	
11	
7	
12	
5	
13	
9	
7	
11	
12	
7	
16	
12	
7	
5	
19	
9	
7	
4	
13	
8	
6	
6	
8	
6	
6	
6	
7	
9	
13	
10	
6	
9	
13	
15	
12	
5	
9	
9	
10	
4	
5	
7	
7	
9	
6	
8	
10	
12	
10	
8	
12	
6	
10	
9	
5	
6	
6	
11	
6	
8	
6	
9	
9	
5	
7	
12	
11	
13	
10	
9	
7	
7	
12	
13	
9	
9	
11	
6	
5	
9	
8	
6	
14	
4	
5	
8	
6	
6	
5	
4	
7	
9	
11	
9	
8	
10	
10	
9	
11	
10	
7	
9	
3	
10	
5	
6	
6	
8	
6	
9	
13	
4	
10	
6	
6	
5	
9	
7	
10	
9	
7	
9	
16	
10	
6	
8	
7	
9	
9	
7	
9	
11	
5	
9	
7	
4	
8	
15	
7	
8	
9	
7	
10	
12	
8	
14	
11	
6	
9	
11	
9	
7	
11	
4	
9	
7	
14	
13	
5	
8	
7	
8	
8	
12	
10	
13	
7	
9	
6	
8	
6	
6	
9	
8	
10	
16	
3	
18	
6	
11	
12	
8	
11	
5	
3	
11	
7	
11	
9	
9	
8	
8	
5	
12	
10	
1	
5	
7	
8	
7	
12	
5	
11	
11	
13	
7	
8	
6	
8	
6	
9	
3	
13	
11	
8	
7	
8	
5	
4	
6	
9	
7	
5	
4	
12	
11	
10	
10	
6	
12	
8	
11	
6	
7	
9	
11	
7	
10	
4	
7	
6	
15	
6	
7	
8	
13	
9	
10	
7	
9	
10	
10	
11	
12	
9	
12	
4	
7	
6	
6	
11	
8	
14	
16	
7	
11	
6	
6	
9	
6	
6	
11	
10	
7	
11	
4	
9	
8	
4	
5	
7	
7	
1	
8	
11	
5	
6	
7	
6	
10	
9	
9	
7	
10	
7	
15	
11	
14	
6	
11	
10	
9	
6	
8	
7	
14	
10	
8	
5	
11	
3	
14	
8	
10	
5	
10	
7	
13	
10	
10	
7	
13	
7	
7	
8	
9	
8	
7	
4	
10	
7	
14	
8	
14	
5	
12	
4	
11	
8	
12	
7	
12	
8	
15	
11	
11	
16	
6	
6	
6	
4	
6	
10	
8	
13	
10	
7	
10	
8	
5	
7	
7	
5	
8	
6	
8	
7	
6	
9	
11	
7	
7	
9	
8	
10	
7	
8	
8	
5	
4	
7	
8	
4	
10	
7	
2	
11	
13	
5	
8	
7	
6	
7	
7	
9	
5	
6	
7	
5	
9	
7	
12	
11	
6	
13	
6	
10	
8	
3	
6	
9	
10	
3	
5	
5	
7	
5	
8	
6	
10	
9	
6	
8	
10	
9	
8	
12	
10	
7	
10	
9	
7	
10	
12	
7	
8	
12	
4	
13	
9	
10	
6	
4	
4	
7	
4	
10	
9	
6	
5	
3	
10	
7	
7	
12	
10	
6	
11	
9	
11	
9	
10	
7	
6	
9	
13	
7	
10	
9	
3	
8	
7	
6	
10	
5	
7	
4	
2	
6	
9	
9	
5	
8	
12	
6	
7	
10	
6	
7	
5	
4	
3	
7	
3	
5	
7	
8	
8	
6	
7	
6	
16	
14	
5	
11	
11	
7	
8	
4	
8	
7	
6	
4	
12	
12	
9	
9	
11	
8	
8	
6	
7	
4	
8	
5	
4	
6	
7	
4	
9	
12	
8	
6	
3	
6	
8	
6	
9	
5	
10	
8	
4	
8	
5	
4	
8	
5	
6	
9	
5	
8	
6	
4	
7	
8	
8	
9	
13	
8	
10	
8	
4	
6	
5	
2	
7	
8	
4	
13	
6	
9	
6	
9	
8	
5	
7	
6	
9	
8	
6	
5	
8	
13	
7	
7	
4	
5	
4	
8	
8	
9	
8	
8	
10	
8	
3	
8	
8	
8	
9	
8	
11	
9	
8	
5	
7	
8	
12	
4	
9	
4	
16	
10	
6	
5	
12	
4	
8	
7	
8	
4	
13	
12	
10	
16	
5	
7	
9	
2	
6	
10	
7	
8	
8	
9	
7	
5	
5	
5	
4	
10	
2	
8	
6	
7	
4	
8	
13	
7	
4	
10	
9	
12	
6	
5	
12	
5	
3	
8	
7	
7	
4	
11	
7	
11	
7	
4	
5	
9	
9	
10	
4	
10	
7	
6	
7	
10	
7	
4	
8	
7	
11	
8	
3	
6	
7	
12	
6	
10	
7	
9	
12	
3	
8	
9	
4	
4	
5	
7	
6	
7	
9	
7	
6	
7	
9	
6	
8	
6	
7	
8	
8	
5	
7	
8	
6	
8	
12	
14	
6	
3	
9	
6	
6	
8	
7	
1	
8	
8	
5	
9	
7	
8	
9	
11	
8	
8	
8	
10	
4	
8	
9	
15	
8	
7	
9	
11	
11	
6	
7	
10	
3	
6	
4	
11	
6	
4	
4	
8	
5	
8	
10	
5	
9	
8	
3	
4	
10	
4	
4	
10	
11	
2	
7	
5	
4	
5	
6	
7	
7	
8	
9	
13	
3	
8	
10	
12	
8	
4	
8	
8	
2	
9	
7	
6	
7	
4	
5	
12	
5	
2	
6	
9	
8	
6	
5	
9	
4	
8	
7	
6	
5	
5	
8	
3	
6	
13	
9	
7	
12	
2	
5	
8	
7	
14	
7	
5	
10	
8	
7	
12	
8	
9	
5	
14	
4	
10	
8	
5	
12	
9	
11	
2	
7	
8	
5	
6	
8	
4	
4	
4	
6	
8	
9	
2	
7	
8	
3	
1	
6	
3	
10	
6	
5	
5	
9	
9	
7	
2	
10	
7	
14	
3	
8	
4	
6	
11	
6	
10	
4	
8	
8	
10	
7	
8	
7	
7	
16	
8	
11	
6	
4	
4	
5	
4	
6	
6	
5	
8	
8	
5	
7	
6	
6	
7	
7	
1	
3	
3	
12	
8	
2	
7	
7	
7	
7	
7	
6	
7	
5	
5	
7	
6	
5	
5	
6	
7	
3	
7	
10	
7	
7	
4	
8	
8	
4	
5	
9	
6	
3	
8	
9	
7	
8	
8	
4	
2	
9	
5	
5	
7	
7	
10	
5	
13	
5	
6	
6	
9	
3	
5	
3	
2	
5	
5	
4	
6	
8	
5	
3	
5	
10	
4	
3	
4	
7	
5	
5	
5	
8	
10	
7	
8	
6	
2	
7	
7	
7	
6	
5	
4	
5	
9	
13	
6	
9	
7	
5	
5	
7	
5	
8	
8	
8	
3	
6	
13	
9	
6	
6	
3	
8	
5	
5	
6	
9	
6	
4	
7	
9	
10	
4	
7	
6	
8	
8	
5	
7	
3	
9	
12	
8	
5	
5	
7	
6	
5	
10	
7	
6	
3	
11	
5	
5	
1	
8	
7	
12	
10	
4	
4	
10	
4	
4	
2	
5	
6	
8	
7	
5	
6	
3	
7	
5	
8	
9	
4	
6	
6	
9	
9	
6	
10	
9	
6	
11	
4	
4	
5	
6	
7	
7	
9	
8	
8	
9	
5	
9	
7	
4	
11	
5	
9	
8	
5	
5	
1	
10	
11	
6	
6	
5	
4	
5	
10	
9	
9	
6	
10	
7	
7	
5	
9	
6	
8	
4	
4	
3	
3	
8	
4	
2	
9	
11	
4	
6	
6	
4	
6	
7	
10	
4	
7	
9	
9	
8	
7	
4	
14	
8	
12	
10	
6	
3	
3	
3	
2	
9	
10	
5	
2	
8	
10	
4	
8	
6	
9	
7	
13	
4	
6	
7	
6	
4	
4	
13	
9	
2	
8	
3	
7	
3	
4	
7	
4	
4	
6	
4	
8	
5	
3	
6	
4	
6	
5	
11	
8	
8	
3	
2	
6	
8	
1	
5	
6	
8	
2	
3	
7	
7	
6	
1	
3	
10	
7	
8	
4	
6	
9	
10	
3	
5	
5	
6	
3	
8	
4	
5	
5	
7	
4	
9	
7	
7	
6	
8	
7	
8	
7	
9	
5	
10	
5	
4	
7	
5	
6	
9	
6	
3	
5	
5	
6	
7	
9	
2	
6	
3	
4	
10	
4	
8	
2	
5	
5	
6	
3	
5	
8	
14	
2	
3	
8	
5	
9	
9	
8	
5	
7	
6	
2	
10	
6	
5	
4	
4	
7	
4	
15	
8	
4	
8	
4	
7	
7	
7	
8	
6	
6	
4	
6	
2	
9	
4	
7	
3	
3	
6	
6	
6	
6	
14	
7	
10	
8	
7	
8	
8	
5	
7	
7	
8	
4	
2	
5	
5	
7	
6	
7	
4	
14	
5	
5	
5	
5	
5	
5	
2	
5	
11	
8	
5	
6	
7	
5	
7	
7	
4	
6	
5	
7	
11	
4	
13	
4	
8	
3	
11	
6	
0	
4	
5	
2	
4	
10	
4	
8	
8	
8	
8	
1	
5	
2	
6	
5	
7	
3	
6	
8	
11	
6	
9	
6	
2	
6	
4	
6	
3	
10	
8	
3	
5	
6	
6	
2	
5	
7	
9	
4	
6	
5	
4	
5	
4	
3	
6	
4	
8	
3	
5	
9	
4	
5	
7	
8	
9	
4	
6	
6	
5	
9	
5	
2	
8	
5	
6	
2	
7	
10	
6	
4	
10	
7	
7	
8	
10	
8	
9	
9	
6	
9	
8	
5	
9	
6	
3	
10	
3	
5	
7	
7	
5	
6	
6	
7	
3	
9	
6	
15	
10	
6	
5	
4	
4	
4	
3	
5	
8	
6	
3	
3	
4	
5	
3	
6	
5	
0	
5	
2	
8	
5	
7	
7	
2	
4	
5	
4	
9	
3	
3	
3	
5	
7	
3	
5	
2	
12	
5	
3	
4	
6	
6	
7	
7	
4	
8	
8	
6	
2	
7	
7	
6	
5	
6	
9	
5	
6	
5	
3	
7	
5	
5	
7	
7	
8	
7	
9	
1	
2	
4	
6	
7	
6	
6	
8	
4	
9	
13	
9	
5	
8	
6	
5	
3	
9	
7	
6	
4	
5	
4	
10	
4	
5	
10	
6	
9	
7	
6	
5	
6	
4	
4	
8	
3	
5	
5	
1	
3	
8	
4	
9	
5	
4	
6	
4	
7	
4	
4	
9	
4	
1	
3	
8	
6	
7	
6	
8	
5	
6	
6	
9	
5	
4	
4	
7	
8	
6	
9	
5	
1	
6	
10	
3	
5	
10	
4	
3	
5	
8	
3	
5	
5	
7	
5	
8	
9	
5	
2	
7	
6	
4	
8	
6	
5	
1	
6	
2	
4	
13	
6	
8	
6	
4	
4	
9	
5	
5	
3	
5	
3	
3	
8	
6	
9	
4	
11	
6	
6	
3	
5	
6	
6	
6	
9	
8	
9	
7	
5	
3	
9	
12	
5	
6	
3	
9	
3	
7	
4	
3	
6	
7	
4	
2	
3	
8	
6	
3	
6	
4	
3	
9	
8	
7	
4	
6	
7	
3	
3	
8	
7	
4	
4	
8	
11	
7	
3	
2	
2	
5	
3	
3	
6	
8	
6	
6	
9	
0	
5	
5	
3	
9	
5	
10	
2	
4	
6	
14	
9	
6	
5	
2	
6	
6	
6	
2	
1	
4	
5	
2	
4	
3	
9	
2	
6	
5	
5	
8	
8	
4	
3	
6	
1	
3	
4	
5	
1	
5	
2	
1	
8	
6	
5	
7	
9	
6	
4	
5	
9	
3	
6	
5	
5	
5	
6	
7	
1	
4	
10	
6	
3	
5	
8	
5	
3	
7	
1	
6	
7	
7	
6	
6	
7	
8	
1	
7	
4	
4	
7	
3	
5	
4	
7	
4	
4	
5	
7	
5	
5	
2	
2	
4	
7	
4	
7	
5	
7	
4	
5	
6	
1	
6	
3	
11	
4	
10	
4	
7	
7	
7	
7	
4	
6	
6	
5	
3	
7	
6	
6	
5	
9	
5	
7	
5	
5	
6	
8	
4	
7	
10	
7	
5	
2	
6	
7	
6	
5	
5	
5	
5	
4	
5	
4	
8	
4	
7	
7	
7	
5	
4	
4	
3	
5	
8	
6	
7	
3	
4	
7	
4	
4	
5	
4	
1	
5	
1	
5	
3	
12	
7	
9	
6	
5	
7	
2	
7	
12	
6	
5	
3	
6	
2	
6	
2	
7	
5	
3	
7	
6	
4	
6	
4	
3	
8	
10	
2	
3	
5	
5	
3	
6	
5	
2	
7	
3	
3	
3	
5	
6	
6	
5	
5	
6	
3	
4	
11	
5	
6	
11	
9	
4	
9	
5	
8	
1	
8	
3	
5	
5	
3	
7	
7	
3	
3	
4	
5	
10	
8	
3	
8	
7	
3	
4	
2	
7	
4	
7	
5	
4	
6	
3	
8	
6	
13	
5	
5	
3	
6	
9	
6	
7	
6	
3	
7	
7	
6	
4	
5	
2	
6	
3	
6	
3	
4	
5	
4	
5	
3	
9	
3	
4	
2	
3	
2	
5	
7	
2	
3	
4	
6	
2	
4	
8	
7	
7	
5	
6	
2	
6	
5	
7	
7	
3	
4	
7	
9	
6	
5	
6	
9	
4	
3	
5	
4	
6	
2	
7	
3	
4	
2	
8	
4	
5	
3	
7	
9	
2	
5	
5	
7	
4	
6	
1	
2	
7	
5	
7	
4	
8	
5	
9	
4	
3	
10	
4	
5	
8	
9	
10	
7	
4	
6	
4	
6	
7	
7	
5	
7	
2	
5	
7	
4	
7	
5	
2	
3	
11	
1	
4	
11	
2	
8	
6	
5	
1	
7	
4	
8	
2	
2	
3	
4	
4	
4	
2	
6	
3	
6	
3	
2	
8	
8	
10	
6	
4	
7	
3	
3	
7	
2	
9	
1	
5	
4	
4	
5	
5	
4	
3	
3	
5	
7	
4	
5	
2	
9	
3	
5	
4	
5	
4	
5	
6	
12	
5	
8	
10	
6	
9	
3	
3	
5	
6	
4	
6	
3	
3	
5	
5	
5	
1	
7	
5	
5	
3	
6	
3	
5	
3	
5	
6	
2	
4	
1	
8	
5	
5	
6	
6	
2	
4	
5	
6	
4	
9	
3	
5	
4	
5	
3	
3	
3	
3	
5	
6	
7	
3	
7	
3	
7	
11	
4	
5	
6	
8	
6	
4	
4	
4	
4	
7	
5	
6	
6	
6	
6	
1	
2	
3	
4	
3	
7	
9	
4	
3	
4	
5	
2	
4	
3	
7	
4	
2	
8	
6	
5	
7	
5	
5	
7	
6	
6	
3	
3	
6	
3	
9	
7	
4	
8	
4	
4	
6	
4	
5	
3	
5	
5	
5	
6	
3	
7	
6	
8	
8	
2	
5	
6	
7	
9	
7	
3	
7	
4	
2	
5	
5	
5	
4	
3	
10	
3	
4	
5	
5	
3	
9	
5	
8	
4	
3	
7	
4	
4	
7	
1	
4	
7	
3	
8	
5	
3	
6	
5	
4	
5	
3	
6	
3	
3	
4	
5	
4	
3	
2	
6	
2	
6	
4	
3	
6	
1	
3	
3	
1	
3	
5	
3	
4	
2	
1	
6	
5	
4	
5	
4	
3	
3	
2	
3	
4	
3	
4	
1	
2	
5	
3	
9	
2	
6	
6	
5	
4	
4	
2	
7	
4	
4	
12	
2	
4	
8	
7	
2	
5	
2	
6	
8	
5	
3	
5	
2	
7	
8	
2	
2	
6	
3	
2	
3	
6	
6	
5	
6	
2	
3	
11	
3	
5	
6	
4	
4	
6	
5	
4	
3	
8	
5	
3	
4	
8	
1	
8	
6	
4	
1	
5	
4	
7	
5	
5	
6	
1	
3	
3	
4	
5	
5	
4	
7	
3	
3	
6	
6	
6	
5	
7	
3	
5	
5	
7	
3	
6	
0	
2	
5	
3	
13	
3	
7	
5	
3	
5	
6	
7	
2	
5	
6	
5	
3	
7	
6	
3	
5	
3	
8	
7	
8	
5	
11	
1	
7	
2	
5	
6	
7	
4	
4	
5	
3	
5	
2	
5	
11	
4	
3	
4	
3	
5	
3	
1	
4	
5	
2	
6	
3	
4	
4	
4	
5	
5	
9	
4	
3	
6	
9	
8	
1	
5	
3	
6	
7	
9	
4	
1	
3	
6	
4	
2	
3	
3	
4	
7	
2	
2	
2	
7	
5	
4	
7	
2	
5	
6	
3	
4	
9	
4	
3	
4	
10	
5	
6	
7	
7	
6	
8	
2	
0	
4	
7	
5	
5	
6	
2	
1	
4	
5	
5	
3	
3	
8	
2	
5	
6	
6	
2	
7	
6	
4	
3	
5	
3	
4	
4	
4	
5	
10	
7	
3	
4	
2	
3	
4	
5	
6	
4	
5	
2	
5	
2	
3	
4	
3	
3	
7	
3	
6	
1	
6	
6	
7	
3	
2	
9	
3	
5	
2	
7	
6	
5	
6	
3	
1	
2	
5	
3	
4	
2	
11	
2	
9	
4	
7	
6	
1	
1	
5	
5	
6	
8	
5	
7	
8	
3	
4	
2	
7	
4	
8	
3	
3	
2	
12	
2	
5	
5	
3	
2	
5	
4	
6	
5	
4	
3	
3	
4	
2	
0	
4	
4	
3	
6	
2	
4	
2	
7	
5	
8	
6	
5	
5	
7	
2	
5	
4	
6	
5	
3	
4	
4	
7	
6	
2	
6	
6	
4	
6	
4	
5	
4	
3	
5	
5	
4	
6	
5	
5	
7	
6	
6	
5	
7	
5	
6	
4	
2	
6	
5	
5	
3	
4	
4	
2	
8	
5	
6	
7	
6	
7	
7	
10	
4	
6	
7	
3	
5	
5	
4	
2	
4	
4	
5	
4	
1	
4	
9	
1	
6	
2	
5	
7	
4	
7	
6	
6	
4	
3	
4	
5	
2	
5	
2	
5	
2	
7	
5	
6	
6	
4	
3	
6	
3	
5	
5	
3	
6	
3	
3	
6	
3	
7	
4	
9	
2	
6	
6	
4	
6	
1	
4	
5	
5	
3	
6	
6	
2	
8	
6	
3	
4	
3	
5	
5	
1	
1	
2	
5	
7	
3	
10	
4	
2	
4	
7	
3	
4	
3	
5	
5	
4	
6	
4	
5	
6	
4	
2	
4	
4	
3	
5	
4	
8	
8	
6	
3	
3	
5	
4	
3	
4	
4	
4	
4	
1	
2	
4	
3	
7	
2	
4	
1	
5	
4	
3	
2	
5	
1	
4	
3	
1	
2	
4	
6	
3	
3	
4	
3	
3	
8	
3	
3	
4	
3	
3	
4	
4	
6	
7	
2	
2	
4	
9	
3	
7	
3	
4	
5	
3	
3	
5	
1	
3	
8	
5	
6	
2	
8	
8	
4	
2	
2	
2	
5	
2	
5	
4	
2	
5	
5	
5	
7	
7	
5	
2	
2	
5	
4	
4	
4	
8	
2	
5	
5	
6	
1	
2	
2	
4	
5	
1	
5	
3	
5	
6	
3	
3	
6	
2	
7	
4	
2	
1	
4	
3	
3	
6	
2	
2	
5	
2	
7	
9	
12	
3	
3	
4	
1	
3	
5	
0	
7	
4	
4	
5	
2	
1	
5	
7	
4	
3	
6	
0	
2	
3	
2	
8	
7	
2	
1	
1	
5	
5	
8	
4	
3	
4	
4	
5	
6	
4	
2	
5	
5	
8	
7	
3	
5	
6	
4	
4	
3	
5	
7	
2	
11	
2	
7	
2	
4	
4	
5	
4	
6	
12	
5	
4	
6	
2	
5	
9	
1	
4	
2	
6	
2	
6	
4	
8	
4	
6	
3	
3	
4	
4	
6	
6	
12	
6	
7	
1	
1	
4	
2	
3	
4	
5	
2	
4	
6	
4	
5	
3	
2	
6	
7	
2	
1	
3	
3	
4	
7	
3	
5	
4	
4	
3	
5	
3	
2	
1	
1	
7	
5	
6	
3	
5	
4	
3	
5	
3	
3	
3	
3	
1	
4	
7	
4	
3	
6	
4	
1	
3	
0	
4	
0	
2	
3	
3	
7	
5	
4	
5	
5	
3	
3	
6	
3	
4	
2	
5	
2	
5	
1	
3	
3	
2	
6	
3	
1	
1	
3	
2	
4	
8	
4	
3	
1	
1	
1	
2	
4	
7	
5	
2	
5	
3	
5	
3	
4	
3	
2	
8	
3	
6	
6	
5	
4	
6	
10	
6	
3	
9	
1	
1	
3	
6	
