#PicoHarp 300  Histogram Data			04/21/2022 03:03:18 PM
#channels per curve
31250
#display curve no.
0	
#memory block no.
0	
#ns/channel
0.0320	
#counts
0	
0	
0	
0	
1	
0	
0	
0	
1	
0	
0	
0	
0	
1	
0	
0	
0	
0	
1	
0	
0	
1	
0	
0	
0	
0	
0	
0	
0	
0	
0	
0	
1	
0	
0	
0	
0	
0	
0	
0	
1	
0	
0	
1	
0	
0	
0	
0	
0	
0	
0	
1	
1	
1	
1	
1	
0	
0	
1	
0	
0	
0	
0	
0	
0	
1	
0	
1	
0	
0	
0	
0	
0	
0	
1	
0	
1	
1	
1	
0	
0	
0	
0	
0	
0	
0	
0	
0	
1	
2	
0	
0	
0	
0	
0	
0	
0	
0	
0	
0	
0	
0	
0	
0	
0	
0	
0	
0	
0	
0	
0	
1	
0	
0	
0	
0	
0	
0	
1	
0	
0	
0	
0	
0	
1	
1	
1	
0	
1	
0	
1	
1	
0	
0	
0	
0	
0	
0	
0	
0	
0	
0	
0	
0	
0	
0	
1	
0	
0	
0	
0	
1	
0	
1	
0	
0	
0	
0	
0	
0	
0	
0	
0	
1	
0	
0	
0	
0	
0	
0	
0	
0	
0	
2	
0	
0	
0	
0	
0	
0	
1	
0	
0	
1	
0	
0	
2	
0	
0	
1	
0	
1	
4	
0	
0	
1	
1	
0	
0	
0	
0	
1	
0	
0	
1	
0	
0	
1	
0	
0	
0	
0	
0	
0	
1	
0	
0	
0	
0	
0	
0	
0	
1	
1	
1	
0	
0	
0	
0	
0	
0	
1	
0	
0	
0	
0	
0	
0	
0	
0	
0	
0	
0	
1	
1	
0	
0	
0	
0	
1	
0	
0	
0	
0	
0	
0	
0	
0	
0	
0	
0	
0	
0	
0	
0	
0	
0	
0	
0	
0	
0	
0	
0	
0	
0	
2	
0	
0	
0	
0	
1	
0	
0	
1	
0	
0	
0	
0	
0	
0	
0	
0	
0	
1	
1	
0	
0	
2	
0	
0	
0	
1	
0	
0	
0	
1	
1	
0	
1	
0	
0	
0	
0	
0	
0	
0	
0	
0	
0	
0	
0	
0	
0	
0	
0	
0	
0	
0	
0	
0	
0	
0	
1	
1	
0	
0	
1	
0	
0	
0	
1	
1	
0	
0	
0	
0	
0	
0	
1	
0	
2	
0	
0	
2	
1	
1	
0	
0	
0	
1	
0	
0	
0	
0	
0	
0	
0	
1	
0	
1	
0	
0	
1	
1	
0	
1	
0	
0	
2	
1	
0	
1	
0	
0	
0	
0	
0	
1	
1	
1	
0	
1	
1	
0	
1	
0	
0	
0	
1	
0	
0	
0	
0	
0	
0	
0	
1	
0	
0	
0	
0	
1	
0	
0	
0	
0	
0	
1	
0	
0	
0	
0	
0	
0	
0	
1	
0	
0	
0	
1	
0	
0	
0	
0	
0	
0	
1	
1	
1	
0	
0	
0	
2	
0	
0	
0	
1	
0	
0	
0	
0	
0	
1	
0	
0	
1	
0	
0	
0	
0	
1	
0	
0	
0	
1	
0	
1	
1	
0	
0	
0	
0	
1	
0	
0	
1	
0	
0	
0	
1	
0	
0	
0	
0	
1	
0	
0	
0	
0	
0	
0	
0	
1	
1	
0	
1	
0	
0	
0	
0	
1	
0	
1	
0	
0	
1	
0	
0	
0	
0	
0	
0	
0	
0	
0	
0	
2	
1	
0	
0	
1	
0	
0	
0	
0	
0	
0	
0	
1	
0	
0	
0	
0	
1	
0	
2	
1	
0	
0	
0	
1	
0	
0	
0	
0	
0	
1	
1	
0	
0	
0	
0	
0	
0	
0	
0	
0	
0	
0	
0	
0	
1	
0	
0	
1	
0	
1	
0	
0	
0	
0	
0	
0	
0	
0	
1	
0	
0	
0	
0	
0	
0	
0	
0	
0	
0	
0	
0	
1	
1	
0	
0	
0	
0	
0	
0	
0	
0	
0	
0	
0	
1	
0	
0	
0	
0	
1	
0	
0	
1	
0	
0	
0	
0	
0	
0	
1	
1	
0	
0	
1	
0	
0	
0	
0	
0	
0	
0	
0	
0	
0	
0	
0	
0	
1	
1	
0	
0	
0	
0	
1	
0	
1	
1	
1	
0	
1	
0	
0	
0	
1	
0	
1	
1	
0	
0	
1	
0	
0	
0	
0	
0	
0	
0	
0	
0	
0	
0	
1	
1	
0	
0	
0	
0	
0	
0	
0	
0	
0	
0	
0	
0	
0	
0	
0	
0	
0	
0	
0	
0	
0	
0	
1	
0	
0	
0	
0	
0	
0	
0	
0	
1	
0	
0	
0	
0	
0	
1	
0	
2	
0	
0	
1	
0	
0	
0	
1	
0	
0	
0	
2	
0	
0	
0	
1	
0	
0	
0	
0	
1	
0	
0	
1	
1	
1	
0	
1	
0	
1	
1	
1	
0	
0	
0	
0	
1	
0	
0	
0	
0	
0	
0	
0	
0	
2	
0	
0	
0	
1	
0	
0	
0	
1	
0	
1	
0	
0	
0	
1	
0	
0	
1	
1	
0	
0	
0	
0	
0	
0	
1	
0	
0	
0	
0	
0	
0	
0	
0	
0	
1	
1	
0	
0	
1	
0	
0	
0	
0	
0	
0	
0	
1	
0	
0	
1	
0	
1	
1	
0	
0	
0	
0	
0	
0	
0	
1	
0	
0	
0	
0	
0	
0	
0	
0	
0	
0	
0	
0	
0	
0	
0	
1	
0	
0	
0	
0	
0	
0	
0	
0	
0	
0	
0	
0	
0	
0	
0	
0	
0	
0	
0	
0	
0	
0	
0	
0	
0	
0	
1	
0	
0	
1	
0	
0	
0	
0	
0	
0	
0	
0	
0	
0	
0	
0	
0	
0	
0	
0	
0	
0	
0	
1	
0	
0	
0	
0	
0	
0	
0	
0	
0	
1	
0	
0	
0	
2	
0	
0	
1	
2	
0	
0	
0	
0	
0	
0	
1	
0	
0	
0	
0	
0	
0	
0	
1	
0	
0	
1	
0	
0	
0	
0	
0	
2	
0	
0	
1	
0	
1	
2	
0	
0	
0	
0	
1	
0	
0	
0	
0	
1	
1	
0	
0	
0	
0	
1	
0	
0	
1	
0	
0	
0	
1	
0	
0	
0	
1	
0	
0	
0	
1	
0	
0	
0	
0	
0	
2	
2	
3	
0	
1	
2	
1	
1	
2	
1	
5	
5	
4	
8	
7	
4	
6	
7	
11	
21	
15	
19	
18	
24	
26	
27	
28	
37	
41	
54	
39	
53	
60	
60	
51	
62	
55	
76	
68	
75	
62	
84	
75	
80	
93	
73	
84	
79	
92	
101	
95	
90	
80	
104	
100	
94	
107	
95	
108	
72	
77	
105	
84	
75	
72	
85	
70	
94	
97	
92	
87	
96	
100	
120	
94	
85	
84	
87	
92	
95	
93	
89	
89	
99	
99	
90	
72	
105	
89	
98	
79	
113	
94	
87	
76	
90	
75	
85	
85	
84	
97	
70	
112	
93	
86	
92	
92	
86	
90	
80	
75	
95	
90	
99	
90	
76	
75	
78	
94	
71	
93	
95	
79	
89	
94	
90	
79	
73	
100	
85	
86	
96	
88	
89	
73	
89	
92	
94	
98	
76	
78	
82	
87	
92	
82	
75	
95	
91	
98	
66	
78	
72	
89	
85	
83	
89	
90	
93	
89	
70	
86	
71	
99	
83	
80	
78	
73	
82	
76	
81	
85	
80	
70	
81	
78	
65	
71	
74	
69	
74	
69	
71	
75	
71	
64	
93	
63	
80	
71	
71	
78	
73	
78	
67	
80	
63	
77	
82	
59	
77	
69	
79	
66	
88	
89	
78	
90	
63	
68	
65	
70	
71	
78	
71	
65	
77	
55	
63	
73	
56	
66	
82	
82	
74	
76	
83	
76	
77	
77	
72	
83	
72	
70	
74	
75	
68	
54	
81	
61	
84	
57	
76	
62	
63	
80	
82	
69	
70	
86	
78	
76	
82	
72	
78	
77	
76	
73	
78	
70	
62	
73	
82	
65	
75	
73	
73	
60	
77	
85	
70	
78	
70	
68	
64	
76	
62	
67	
68	
74	
60	
68	
94	
70	
74	
65	
77	
55	
83	
66	
72	
43	
75	
73	
70	
77	
51	
59	
60	
65	
51	
67	
73	
61	
69	
62	
84	
60	
75	
72	
71	
65	
62	
69	
70	
54	
66	
66	
63	
64	
73	
68	
70	
56	
68	
61	
70	
66	
67	
83	
59	
70	
50	
70	
74	
69	
79	
63	
77	
65	
63	
63	
58	
62	
61	
68	
64	
55	
53	
66	
67	
68	
62	
66	
50	
76	
53	
62	
77	
62	
78	
67	
82	
66	
58	
58	
70	
47	
80	
66	
66	
63	
60	
58	
57	
49	
65	
46	
62	
76	
74	
78	
72	
64	
61	
74	
60	
54	
72	
79	
61	
65	
68	
72	
71	
56	
67	
69	
79	
69	
68	
51	
59	
62	
68	
50	
69	
62	
55	
56	
61	
53	
72	
69	
52	
55	
55	
78	
59	
54	
61	
66	
55	
51	
65	
57	
65	
64	
66	
68	
61	
63	
61	
64	
62	
61	
71	
70	
52	
55	
63	
65	
56	
54	
54	
54	
64	
59	
54	
60	
63	
56	
46	
65	
63	
53	
48	
71	
44	
62	
71	
58	
63	
59	
64	
50	
59	
61	
67	
52	
50	
59	
59	
55	
65	
56	
53	
54	
59	
65	
48	
61	
56	
55	
66	
62	
75	
53	
52	
57	
56	
68	
53	
53	
50	
64	
57	
38	
61	
56	
49	
60	
63	
42	
48	
54	
67	
59	
57	
66	
58	
49	
56	
60	
57	
70	
44	
48	
64	
40	
49	
65	
67	
50	
56	
63	
59	
61	
45	
58	
52	
64	
59	
51	
67	
56	
57	
37	
47	
66	
60	
51	
53	
59	
60	
39	
58	
43	
47	
40	
53	
44	
51	
58	
66	
44	
57	
65	
51	
56	
30	
61	
50	
40	
43	
59	
61	
47	
56	
53	
50	
56	
49	
59	
52	
57	
53	
58	
50	
45	
40	
55	
59	
46	
56	
63	
58	
47	
51	
68	
50	
57	
52	
55	
59	
64	
44	
55	
48	
48	
53	
56	
62	
53	
53	
38	
67	
51	
51	
53	
57	
56	
40	
41	
51	
44	
49	
63	
52	
45	
57	
55	
50	
57	
52	
51	
51	
57	
48	
67	
51	
56	
49	
32	
48	
45	
64	
54	
46	
48	
42	
38	
52	
43	
51	
47	
60	
46	
52	
44	
54	
43	
55	
49	
49	
52	
53	
37	
44	
51	
49	
53	
47	
52	
46	
58	
44	
39	
50	
49	
46	
52	
45	
45	
49	
36	
35	
50	
55	
54	
36	
44	
40	
47	
44	
50	
37	
37	
47	
45	
44	
56	
44	
48	
42	
43	
54	
51	
43	
36	
39	
47	
47	
47	
47	
45	
52	
46	
57	
42	
34	
46	
51	
47	
45	
40	
52	
50	
46	
45	
45	
62	
45	
64	
43	
40	
47	
48	
40	
42	
55	
46	
44	
43	
53	
59	
49	
40	
45	
53	
54	
43	
57	
43	
25	
43	
46	
50	
40	
38	
43	
46	
44	
39	
42	
53	
47	
36	
45	
48	
44	
41	
33	
46	
50	
41	
41	
36	
50	
46	
41	
39	
51	
39	
27	
48	
41	
46	
47	
40	
38	
34	
31	
41	
35	
37	
43	
46	
27	
38	
42	
34	
40	
44	
47	
42	
41	
44	
64	
41	
36	
42	
42	
36	
45	
48	
54	
38	
29	
38	
47	
52	
45	
45	
51	
43	
49	
43	
42	
42	
39	
41	
40	
32	
40	
39	
35	
44	
45	
43	
30	
42	
46	
36	
51	
36	
47	
39	
50	
41	
32	
37	
38	
44	
32	
37	
41	
50	
40	
46	
41	
33	
50	
43	
38	
45	
41	
39	
51	
46	
45	
37	
33	
43	
39	
35	
33	
47	
33	
36	
35	
43	
34	
32	
36	
42	
41	
42	
35	
37	
42	
37	
32	
43	
46	
48	
53	
34	
44	
44	
22	
44	
38	
38	
40	
34	
32	
40	
40	
32	
34	
45	
44	
26	
38	
48	
36	
42	
28	
40	
37	
40	
45	
33	
31	
41	
38	
32	
36	
38	
39	
40	
40	
42	
35	
38	
37	
31	
43	
37	
44	
37	
27	
43	
35	
41	
47	
38	
38	
31	
44	
43	
40	
34	
33	
45	
40	
39	
41	
48	
39	
26	
31	
33	
35	
34	
29	
47	
39	
40	
35	
41	
38	
45	
34	
40	
33	
42	
42	
35	
38	
33	
29	
27	
26	
42	
39	
30	
30	
39	
44	
42	
30	
44	
40	
31	
31	
25	
35	
39	
22	
27	
31	
39	
36	
29	
40	
31	
32	
39	
36	
50	
49	
34	
38	
28	
31	
21	
36	
53	
41	
27	
37	
36	
41	
39	
35	
38	
44	
38	
29	
23	
33	
32	
32	
36	
40	
26	
30	
37	
34	
36	
39	
39	
25	
37	
32	
23	
41	
33	
35	
35	
35	
36	
41	
31	
41	
36	
33	
33	
38	
42	
35	
27	
48	
28	
30	
34	
26	
27	
29	
42	
30	
28	
34	
35	
25	
28	
30	
37	
34	
36	
35	
31	
27	
25	
26	
30	
28	
33	
33	
37	
32	
36	
38	
31	
29	
27	
50	
25	
32	
39	
40	
33	
23	
23	
33	
38	
31	
32	
34	
43	
35	
35	
34	
50	
38	
33	
28	
33	
37	
40	
35	
31	
32	
38	
39	
31	
33	
30	
30	
37	
32	
34	
44	
21	
29	
41	
38	
34	
40	
26	
33	
31	
33	
29	
27	
36	
32	
24	
25	
34	
34	
42	
31	
32	
29	
41	
38	
27	
29	
42	
37	
39	
26	
32	
36	
30	
30	
36	
28	
29	
35	
28	
32	
29	
35	
34	
26	
31	
35	
33	
31	
33	
35	
31	
26	
35	
27	
32	
38	
33	
31	
32	
38	
39	
24	
32	
39	
32	
20	
34	
42	
26	
33	
31	
34	
24	
41	
30	
22	
24	
29	
18	
41	
43	
34	
29	
37	
26	
28	
38	
28	
30	
21	
35	
34	
43	
22	
33	
36	
29	
36	
28	
26	
25	
31	
31	
22	
29	
34	
30	
36	
43	
25	
30	
22	
24	
30	
27	
31	
22	
30	
21	
30	
27	
27	
28	
31	
30	
28	
15	
26	
30	
28	
22	
20	
32	
33	
28	
31	
37	
33	
21	
29	
25	
32	
32	
36	
28	
31	
32	
28	
36	
26	
31	
28	
28	
31	
37	
24	
35	
22	
24	
29	
25	
38	
30	
33	
30	
32	
25	
31	
42	
26	
29	
30	
41	
24	
30	
30	
41	
19	
27	
24	
39	
30	
19	
34	
24	
33	
24	
26	
27	
37	
22	
29	
22	
22	
24	
30	
22	
30	
27	
25	
24	
32	
19	
28	
18	
25	
32	
30	
28	
20	
20	
16	
27	
22	
27	
31	
26	
25	
24	
30	
21	
27	
24	
28	
36	
23	
36	
26	
37	
22	
24	
29	
32	
24	
26	
31	
28	
24	
19	
23	
31	
29	
30	
31	
33	
27	
29	
27	
28	
38	
29	
28	
32	
28	
28	
25	
34	
32	
25	
22	
24	
26	
26	
28	
26	
23	
28	
34	
18	
30	
21	
16	
34	
32	
25	
17	
26	
29	
25	
23	
25	
36	
30	
26	
23	
34	
31	
35	
22	
23	
25	
19	
35	
29	
28	
22	
25	
26	
12	
25	
35	
33	
28	
36	
24	
28	
24	
26	
22	
29	
14	
23	
27	
21	
20	
25	
27	
26	
23	
21	
24	
21	
20	
19	
26	
21	
21	
20	
29	
27	
26	
25	
18	
31	
34	
27	
29	
31	
27	
12	
18	
26	
17	
33	
22	
19	
18	
25	
22	
18	
32	
31	
30	
33	
23	
33	
25	
20	
30	
24	
24	
26	
26	
16	
23	
25	
19	
14	
30	
25	
22	
23	
31	
27	
26	
19	
23	
20	
19	
34	
15	
20	
32	
24	
21	
24	
20	
18	
20	
21	
23	
30	
22	
29	
25	
21	
23	
26	
30	
23	
21	
20	
21	
29	
25	
28	
33	
19	
20	
30	
24	
17	
19	
25	
35	
26	
26	
27	
22	
25	
27	
28	
17	
22	
26	
22	
26	
26	
31	
26	
19	
24	
26	
25	
20	
15	
27	
25	
18	
18	
18	
24	
33	
27	
19	
25	
22	
30	
23	
17	
16	
24	
23	
24	
27	
16	
22	
16	
33	
24	
18	
14	
26	
26	
21	
25	
23	
17	
28	
22	
28	
24	
19	
19	
26	
25	
27	
27	
24	
25	
26	
22	
15	
28	
21	
27	
16	
29	
26	
21	
29	
24	
20	
20	
15	
19	
36	
20	
20	
26	
25	
21	
24	
26	
20	
14	
14	
28	
18	
27	
25	
14	
17	
23	
25	
20	
22	
21	
28	
25	
21	
21	
24	
25	
28	
22	
28	
26	
17	
18	
17	
22	
26	
20	
16	
16	
19	
25	
20	
25	
17	
18	
29	
20	
24	
19	
26	
25	
16	
21	
19	
17	
18	
20	
20	
28	
23	
26	
17	
22	
21	
21	
20	
24	
25	
24	
22	
31	
26	
18	
21	
21	
15	
25	
34	
16	
22	
19	
26	
24	
18	
16	
17	
9	
25	
18	
26	
16	
22	
21	
19	
26	
15	
23	
14	
18	
22	
21	
27	
17	
19	
27	
15	
22	
19	
15	
18	
23	
22	
12	
25	
25	
25	
24	
23	
14	
23	
23	
16	
18	
16	
23	
22	
31	
26	
29	
11	
18	
18	
23	
28	
20	
19	
19	
24	
24	
21	
28	
28	
24	
16	
17	
25	
22	
19	
20	
15	
16	
12	
24	
18	
18	
26	
26	
23	
14	
10	
11	
15	
24	
24	
30	
14	
13	
27	
16	
22	
23	
19	
23	
21	
18	
22	
17	
28	
22	
23	
22	
19	
25	
24	
22	
17	
26	
19	
12	
7	
24	
26	
10	
19	
12	
21	
17	
22	
15	
13	
14	
12	
30	
19	
15	
23	
16	
18	
17	
15	
19	
19	
28	
11	
12	
21	
13	
19	
12	
21	
17	
31	
16	
14	
22	
24	
25	
24	
20	
22	
15	
16	
17	
11	
20	
21	
22	
16	
19	
16	
20	
19	
13	
10	
19	
22	
15	
18	
16	
10	
19	
15	
16	
12	
20	
25	
28	
13	
19	
22	
17	
17	
15	
24	
16	
18	
21	
15	
18	
22	
18	
22	
13	
13	
24	
25	
16	
16	
19	
16	
15	
29	
16	
22	
15	
16	
24	
17	
13	
16	
15	
15	
13	
19	
23	
20	
18	
19	
19	
21	
21	
14	
20	
14	
20	
20	
15	
21	
19	
20	
19	
21	
19	
14	
20	
21	
22	
14	
21	
23	
13	
20	
22	
26	
11	
16	
18	
14	
19	
21	
19	
16	
14	
27	
14	
19	
13	
20	
10	
21	
13	
21	
24	
26	
23	
22	
16	
19	
21	
21	
15	
19	
16	
16	
15	
14	
18	
20	
13	
16	
11	
13	
20	
16	
22	
17	
17	
12	
14	
13	
13	
14	
11	
15	
22	
17	
13	
13	
25	
11	
19	
10	
20	
15	
8	
20	
16	
16	
10	
16	
17	
19	
18	
20	
10	
15	
17	
16	
15	
13	
11	
18	
23	
21	
20	
15	
16	
13	
18	
21	
15	
18	
22	
13	
19	
19	
17	
19	
16	
10	
17	
15	
20	
14	
22	
9	
16	
18	
18	
26	
13	
18	
17	
21	
14	
20	
11	
23	
16	
17	
15	
22	
12	
15	
19	
13	
17	
14	
17	
17	
16	
12	
12	
12	
25	
16	
13	
12	
18	
24	
8	
25	
12	
20	
19	
17	
24	
15	
13	
16	
12	
22	
9	
12	
15	
13	
14	
16	
8	
16	
22	
19	
20	
14	
21	
13	
20	
15	
14	
17	
15	
7	
16	
14	
9	
13	
14	
21	
22	
15	
16	
14	
18	
18	
14	
17	
13	
16	
16	
19	
14	
14	
11	
18	
15	
17	
17	
14	
17	
22	
15	
16	
18	
10	
12	
9	
16	
14	
17	
17	
12	
20	
20	
9	
22	
16	
12	
12	
14	
16	
19	
20	
21	
16	
22	
22	
12	
9	
5	
17	
15	
13	
14	
12	
16	
13	
16	
19	
17	
15	
10	
12	
12	
9	
12	
13	
12	
15	
19	
11	
15	
20	
23	
14	
12	
19	
13	
10	
17	
20	
13	
13	
7	
12	
16	
19	
19	
8	
16	
10	
13	
12	
12	
12	
16	
10	
16	
16	
19	
18	
14	
17	
18	
16	
17	
18	
11	
11	
12	
19	
15	
16	
17	
19	
14	
13	
13	
22	
16	
17	
17	
13	
17	
15	
18	
12	
15	
15	
14	
29	
12	
22	
16	
17	
9	
15	
8	
13	
13	
17	
10	
13	
12	
8	
10	
13	
12	
18	
9	
12	
12	
9	
10	
14	
17	
17	
12	
14	
18	
13	
11	
19	
19	
14	
15	
14	
15	
17	
18	
21	
18	
11	
16	
11	
9	
10	
14	
16	
17	
14	
13	
12	
12	
17	
14	
23	
11	
17	
12	
12	
7	
15	
8	
23	
15	
17	
14	
15	
10	
8	
10	
11	
14	
17	
14	
19	
17	
22	
15	
17	
13	
15	
14	
8	
12	
8	
13	
12	
11	
16	
24	
13	
12	
18	
19	
7	
9	
13	
17	
16	
11	
14	
18	
14	
17	
17	
13	
11	
11	
12	
13	
11	
14	
20	
13	
16	
15	
20	
16	
13	
20	
7	
10	
16	
11	
14	
12	
18	
9	
10	
15	
10	
12	
12	
18	
17	
9	
15	
21	
20	
10	
17	
13	
11	
13	
8	
15	
14	
10	
17	
17	
8	
14	
13	
17	
13	
13	
12	
12	
13	
12	
14	
11	
19	
15	
12	
18	
19	
16	
13	
9	
13	
6	
18	
16	
4	
10	
15	
14	
15	
14	
11	
11	
17	
14	
8	
14	
13	
16	
15	
15	
12	
19	
4	
10	
14	
12	
11	
15	
11	
14	
13	
19	
19	
16	
18	
16	
13	
6	
13	
14	
15	
15	
9	
13	
12	
10	
13	
5	
13	
9	
14	
21	
10	
13	
18	
12	
10	
15	
10	
14	
12	
15	
17	
20	
12	
10	
11	
8	
13	
6	
9	
15	
19	
16	
10	
18	
11	
20	
10	
13	
17	
17	
15	
12	
10	
12	
14	
19	
11	
21	
14	
13	
13	
9	
13	
15	
10	
10	
17	
9	
11	
14	
12	
8	
11	
12	
12	
14	
13	
9	
14	
6	
13	
16	
9	
9	
16	
12	
7	
12	
16	
15	
8	
10	
12	
10	
11	
10	
15	
9	
12	
9	
15	
15	
11	
8	
17	
17	
9	
9	
15	
11	
17	
11	
14	
12	
12	
17	
18	
8	
10	
16	
15	
7	
11	
15	
9	
18	
9	
12	
11	
8	
10	
11	
10	
11	
10	
16	
11	
18	
13	
9	
13	
9	
14	
21	
12	
11	
12	
9	
11	
13	
10	
15	
14	
10	
8	
11	
10	
12	
10	
13	
7	
9	
14	
11	
10	
16	
7	
9	
7	
10	
20	
11	
9	
15	
10	
8	
11	
10	
15	
13	
17	
11	
6	
6	
15	
12	
13	
12	
6	
11	
8	
17	
8	
9	
10	
6	
17	
12	
13	
11	
15	
13	
14	
12	
12	
7	
7	
17	
15	
17	
9	
10	
10	
13	
14	
10	
15	
7	
13	
9	
13	
19	
11	
7	
8	
14	
10	
13	
14	
8	
11	
12	
14	
21	
11	
9	
18	
13	
12	
20	
11	
14	
15	
13	
14	
9	
4	
10	
15	
10	
6	
8	
13	
12	
12	
15	
20	
15	
14	
10	
7	
11	
13	
11	
7	
10	
17	
8	
14	
8	
6	
15	
14	
10	
15	
10	
10	
12	
4	
10	
9	
15	
11	
12	
15	
11	
8	
12	
11	
9	
15	
10	
6	
10	
14	
16	
4	
10	
11	
10	
12	
10	
14	
7	
7	
12	
14	
11	
6	
10	
7	
18	
12	
13	
8	
9	
4	
8	
7	
14	
8	
11	
12	
9	
13	
9	
12	
8	
7	
8	
7	
10	
10	
10	
13	
9	
13	
8	
11	
12	
12	
16	
8	
9	
9	
12	
11	
11	
13	
10	
8	
10	
7	
15	
13	
19	
5	
10	
18	
10	
8	
7	
11	
12	
8	
6	
5	
10	
8	
6	
9	
8	
10	
16	
12	
9	
16	
6	
10	
16	
8	
11	
22	
9	
9	
6	
6	
10	
15	
9	
7	
12	
6	
20	
8	
9	
12	
7	
12	
9	
4	
6	
5	
10	
6	
11	
13	
14	
5	
12	
9	
3	
12	
7	
9	
7	
10	
14	
12	
13	
4	
11	
11	
13	
7	
9	
7	
8	
8	
14	
16	
8	
8	
7	
9	
6	
10	
8	
13	
10	
7	
7	
13	
10	
7	
7	
9	
12	
13	
10	
8	
13	
10	
14	
8	
7	
14	
9	
12	
6	
11	
13	
5	
7	
11	
10	
8	
10	
10	
8	
2	
4	
9	
4	
7	
7	
11	
5	
15	
10	
8	
5	
11	
7	
10	
10	
11	
13	
12	
10	
10	
8	
7	
6	
15	
4	
9	
8	
7	
10	
10	
10	
8	
6	
12	
14	
7	
10	
8	
11	
17	
6	
12	
13	
7	
12	
8	
7	
13	
12	
2	
11	
13	
9	
7	
9	
10	
6	
9	
8	
11	
11	
9	
11	
15	
11	
7	
12	
9	
6	
12	
10	
19	
8	
8	
8	
5	
5	
10	
11	
5	
5	
8	
12	
4	
7	
8	
20	
9	
7	
8	
7	
10	
6	
17	
8	
7	
7	
9	
7	
13	
6	
4	
7	
8	
13	
12	
4	
12	
8	
9	
12	
9	
17	
16	
12	
6	
9	
11	
8	
16	
8	
12	
6	
6	
10	
4	
8	
8	
11	
16	
6	
8	
6	
12	
7	
7	
10	
12	
8	
8	
11	
8	
7	
6	
8	
15	
6	
11	
7	
9	
15	
6	
7	
8	
8	
7	
9	
6	
14	
9	
16	
13	
15	
5	
7	
7	
8	
9	
8	
5	
5	
4	
7	
7	
9	
9	
15	
14	
7	
10	
11	
3	
7	
10	
6	
5	
10	
11	
5	
9	
11	
7	
5	
10	
7	
9	
8	
10	
6	
9	
10	
11	
16	
7	
9	
7	
8	
9	
14	
7	
11	
9	
6	
8	
8	
7	
12	
10	
1	
4	
3	
8	
8	
12	
11	
5	
6	
9	
12	
4	
10	
7	
14	
9	
7	
8	
6	
12	
9	
9	
9	
9	
9	
2	
13	
10	
7	
12	
8	
8	
8	
7	
7	
12	
5	
6	
7	
8	
12	
5	
12	
5	
5	
4	
6	
11	
14	
7	
4	
10	
6	
11	
8	
10	
8	
7	
11	
13	
14	
8	
3	
5	
9	
9	
11	
12	
5	
3	
7	
10	
8	
12	
9	
5	
6	
14	
9	
13	
11	
11	
2	
10	
9	
7	
13	
8	
8	
11	
5	
10	
2	
6	
3	
13	
11	
8	
6	
11	
9	
11	
9	
8	
5	
7	
11	
7	
7	
9	
7	
6	
9	
11	
9	
7	
10	
12	
10	
8	
7	
11	
11	
4	
7	
4	
13	
8	
10	
8	
8	
11	
3	
6	
11	
10	
11	
7	
9	
5	
6	
13	
10	
10	
10	
7	
4	
8	
7	
11	
8	
9	
8	
8	
8	
14	
9	
5	
6	
6	
9	
10	
7	
13	
4	
3	
12	
6	
7	
12	
13	
5	
10	
7	
10	
10	
8	
8	
8	
5	
5	
9	
8	
9	
5	
7	
3	
8	
9	
7	
4	
7	
10	
11	
9	
8	
5	
7	
15	
10	
6	
8	
12	
7	
3	
13	
7	
12	
5	
10	
3	
6	
4	
7	
6	
8	
9	
9	
11	
7	
8	
9	
6	
6	
6	
12	
3	
7	
5	
8	
6	
6	
8	
4	
7	
1	
10	
11	
5	
6	
5	
8	
5	
6	
8	
6	
6	
13	
10	
1	
6	
9	
7	
8	
14	
6	
10	
11	
9	
7	
5	
13	
12	
5	
6	
12	
11	
9	
5	
5	
1	
7	
10	
10	
10	
8	
9	
5	
4	
9	
7	
10	
11	
6	
9	
7	
11	
14	
11	
7	
10	
12	
6	
9	
5	
8	
8	
4	
5	
9	
4	
6	
6	
7	
9	
11	
7	
9	
4	
10	
11	
10	
9	
5	
12	
12	
5	
3	
5	
7	
8	
7	
9	
6	
5	
9	
8	
11	
8	
3	
4	
2	
8	
11	
10	
5	
7	
2	
5	
9	
2	
5	
7	
11	
6	
10	
5	
8	
8	
6	
7	
9	
8	
4	
5	
11	
7	
6	
6	
1	
7	
10	
4	
6	
4	
8	
9	
9	
8	
8	
9	
3	
5	
11	
8	
10	
9	
6	
7	
10	
5	
10	
8	
4	
5	
12	
10	
10	
3	
12	
6	
3	
6	
8	
7	
10	
8	
6	
8	
2	
9	
7	
13	
3	
6	
4	
4	
5	
7	
5	
6	
4	
2	
8	
8	
6	
8	
11	
7	
5	
11	
4	
4	
10	
6	
6	
9	
6	
6	
7	
7	
8	
3	
15	
8	
5	
9	
7	
6	
8	
2	
9	
7	
4	
9	
8	
16	
8	
2	
8	
7	
11	
7	
5	
8	
5	
7	
6	
4	
6	
5	
7	
8	
9	
9	
4	
11	
9	
4	
9	
2	
8	
7	
11	
2	
8	
3	
5	
7	
9	
5	
5	
7	
6	
4	
6	
2	
8	
8	
8	
7	
11	
3	
7	
5	
8	
6	
5	
10	
8	
5	
10	
10	
5	
11	
9	
9	
7	
9	
6	
6	
4	
2	
7	
3	
12	
5	
6	
8	
6	
8	
5	
4	
10	
5	
6	
5	
7	
5	
8	
6	
7	
9	
5	
4	
6	
7	
8	
4	
4	
6	
9	
5	
6	
4	
3	
7	
9	
11	
8	
3	
5	
5	
9	
9	
4	
7	
7	
4	
9	
7	
7	
9	
7	
1	
3	
5	
3	
8	
6	
8	
8	
5	
4	
10	
7	
9	
3	
6	
6	
5	
7	
7	
2	
4	
2	
9	
8	
7	
9	
5	
6	
6	
7	
6	
7	
6	
5	
1	
7	
6	
5	
8	
7	
6	
5	
3	
3	
9	
5	
6	
2	
5	
1	
6	
8	
4	
13	
10	
4	
7	
6	
5	
7	
10	
5	
6	
9	
2	
12	
3	
4	
6	
3	
10	
2	
7	
7	
6	
2	
5	
5	
8	
6	
5	
9	
4	
6	
5	
5	
2	
4	
7	
3	
11	
8	
6	
11	
6	
8	
10	
8	
3	
7	
4	
11	
3	
7	
6	
7	
11	
8	
6	
8	
5	
13	
4	
5	
5	
2	
6	
4	
3	
4	
4	
4	
9	
6	
6	
6	
6	
8	
5	
6	
6	
6	
6	
5	
4	
2	
0	
2	
3	
6	
3	
5	
6	
7	
10	
5	
5	
4	
7	
7	
5	
7	
6	
5	
2	
7	
5	
9	
9	
10	
2	
5	
5	
6	
1	
2	
6	
5	
9	
2	
14	
10	
7	
3	
0	
7	
8	
0	
5	
9	
4	
8	
8	
3	
5	
4	
4	
6	
8	
1	
5	
4	
8	
6	
7	
7	
9	
5	
4	
3	
4	
6	
5	
4	
4	
6	
8	
12	
7	
4	
9	
3	
5	
5	
2	
5	
2	
5	
3	
1	
7	
9	
8	
7	
6	
10	
13	
1	
7	
9	
6	
9	
11	
3	
3	
6	
3	
7	
4	
6	
8	
8	
4	
9	
2	
9	
5	
5	
1	
5	
8	
5	
4	
5	
6	
6	
3	
11	
5	
4	
5	
7	
3	
5	
6	
7	
6	
3	
9	
3	
5	
4	
3	
4	
7	
7	
3	
7	
8	
4	
12	
3	
6	
7	
4	
4	
6	
8	
6	
6	
4	
7	
7	
6	
9	
6	
3	
4	
9	
4	
2	
9	
5	
3	
1	
6	
4	
4	
6	
7	
8	
5	
4	
3	
4	
5	
9	
3	
4	
6	
6	
5	
4	
4	
2	
6	
6	
8	
2	
5	
6	
5	
6	
5	
5	
7	
6	
7	
7	
4	
7	
1	
4	
6	
5	
3	
7	
6	
5	
8	
5	
9	
5	
5	
3	
7	
5	
5	
7	
8	
4	
4	
5	
6	
7	
7	
7	
5	
6	
4	
12	
9	
7	
11	
2	
4	
8	
4	
3	
3	
6	
3	
8	
6	
3	
5	
7	
7	
4	
5	
5	
3	
4	
4	
5	
3	
5	
2	
8	
1	
4	
8	
5	
3	
6	
4	
6	
6	
4	
11	
5	
0	
4	
3	
4	
4	
8	
6	
6	
3	
5	
2	
4	
1	
3	
6	
3	
4	
4	
3	
6	
5	
7	
6	
6	
4	
4	
6	
6	
2	
3	
6	
4	
3	
4	
3	
5	
6	
5	
9	
4	
7	
7	
10	
1	
9	
0	
7	
6	
3	
3	
3	
4	
2	
2	
3	
6	
3	
6	
5	
7	
9	
3	
3	
4	
7	
5	
10	
4	
6	
6	
8	
2	
7	
9	
3	
7	
5	
5	
2	
6	
3	
4	
5	
2	
3	
6	
4	
4	
4	
7	
7	
9	
0	
4	
0	
7	
3	
4	
6	
6	
9	
5	
5	
1	
2	
8	
6	
6	
4	
5	
5	
7	
2	
10	
5	
3	
4	
8	
7	
4	
2	
4	
6	
4	
3	
6	
3	
0	
3	
2	
7	
5	
3	
5	
2	
7	
8	
3	
2	
3	
7	
6	
5	
6	
3	
7	
10	
1	
4	
6	
7	
5	
12	
5	
3	
7	
4	
7	
6	
4	
3	
3	
5	
3	
4	
6	
3	
3	
6	
6	
7	
5	
3	
3	
5	
10	
3	
7	
4	
4	
4	
3	
8	
3	
4	
6	
6	
5	
5	
4	
3	
6	
4	
2	
6	
4	
6	
3	
5	
0	
6	
3	
4	
5	
3	
5	
6	
4	
7	
5	
7	
1	
5	
5	
1	
6	
1	
3	
5	
3	
1	
2	
3	
3	
6	
4	
3	
10	
8	
3	
8	
7	
3	
8	
7	
5	
11	
5	
4	
3	
5	
2	
2	
5	
4	
5	
7	
3	
5	
3	
7	
9	
2	
3	
2	
8	
5	
4	
6	
2	
4	
3	
8	
6	
4	
4	
5	
3	
3	
1	
7	
4	
6	
7	
0	
5	
5	
7	
3	
10	
3	
6	
6	
1	
7	
2	
6	
4	
5	
5	
5	
3	
3	
1	
4	
0	
4	
3	
3	
2	
2	
4	
3	
4	
3	
3	
2	
3	
8	
4	
6	
4	
6	
5	
4	
6	
4	
4	
4	
5	
9	
5	
1	
7	
5	
4	
3	
3	
7	
3	
5	
7	
6	
4	
2	
4	
6	
2	
5	
6	
3	
4	
4	
4	
8	
4	
7	
3	
6	
3	
5	
3	
7	
7	
2	
2	
2	
4	
3	
5	
3	
3	
2	
3	
8	
4	
4	
4	
3	
4	
5	
4	
5	
3	
6	
7	
4	
9	
2	
6	
5	
6	
4	
2	
7	
6	
3	
9	
7	
4	
2	
3	
4	
6	
1	
4	
12	
1	
3	
4	
4	
5	
3	
2	
7	
3	
6	
5	
2	
3	
2	
5	
3	
1	
4	
1	
2	
3	
5	
2	
3	
4	
2	
2	
5	
3	
3	
1	
5	
4	
1	
2	
0	
6	
1	
2	
5	
5	
3	
3	
7	
3	
4	
3	
5	
3	
3	
6	
4	
8	
6	
2	
7	
4	
5	
4	
7	
7	
3	
2	
2	
3	
1	
5	
5	
3	
9	
5	
5	
1	
5	
6	
2	
5	
5	
8	
4	
4	
4	
4	
3	
2	
5	
7	
5	
6	
7	
2	
5	
3	
2	
6	
7	
8	
6	
1	
6	
5	
4	
6	
3	
7	
4	
4	
5	
7	
6	
4	
5	
4	
9	
3	
2	
3	
9	
1	
1	
8	
5	
7	
3	
5	
2	
2	
6	
3	
1	
4	
2	
6	
3	
6	
3	
0	
1	
2	
4	
5	
1	
2	
4	
5	
4	
4	
2	
5	
2	
3	
5	
3	
8	
3	
3	
4	
5	
2	
6	
6	
4	
4	
3	
3	
5	
3	
4	
3	
1	
8	
7	
5	
4	
4	
3	
3	
5	
5	
3	
4	
4	
3	
5	
4	
3	
2	
7	
3	
3	
3	
8	
4	
4	
6	
3	
3	
4	
3	
7	
1	
2	
5	
5	
3	
6	
4	
8	
4	
4	
6	
1	
3	
8	
3	
7	
0	
1	
5	
7	
5	
3	
3	
2	
7	
6	
4	
9	
5	
1	
4	
4	
1	
5	
8	
8	
3	
8	
2	
3	
1	
0	
3	
2	
2	
3	
1	
8	
5	
5	
1	
2	
3	
5	
6	
3	
6	
4	
3	
2	
0	
3	
6	
6	
3	
3	
2	
4	
1	
3	
4	
4	
6	
3	
2	
3	
4	
5	
3	
7	
5	
1	
5	
3	
1	
5	
6	
5	
3	
4	
1	
3	
1	
2	
2	
3	
5	
4	
6	
4	
5	
6	
2	
5	
3	
3	
4	
3	
4	
3	
2	
5	
3	
4	
3	
3	
2	
5	
3	
4	
4	
3	
3	
4	
6	
3	
2	
8	
1	
8	
5	
6	
3	
5	
4	
3	
6	
0	
4	
1	
4	
5	
3	
5	
6	
4	
1	
7	
4	
4	
4	
2	
4	
1	
2	
3	
1	
4	
2	
4	
1	
1	
4	
4	
2	
4	
5	
7	
3	
0	
0	
6	
6	
3	
6	
8	
5	
3	
2	
4	
6	
3	
0	
4	
4	
2	
4	
5	
3	
4	
3	
7	
3	
3	
4	
2	
4	
5	
4	
6	
2	
6	
6	
7	
4	
6	
2	
2	
4	
6	
3	
4	
8	
2	
3	
5	
0	
3	
5	
4	
4	
4	
3	
1	
3	
2	
3	
2	
3	
2	
5	
5	
2	
2	
4	
5	
1	
3	
3	
9	
2	
0	
4	
4	
1	
2	
5	
3	
2	
5	
4	
7	
0	
2	
3	
1	
4	
1	
6	
3	
4	
3	
4	
5	
1	
2	
7	
3	
5	
4	
0	
2	
3	
3	
8	
3	
3	
5	
2	
1	
4	
5	
6	
5	
1	
3	
5	
3	
8	
1	
2	
3	
4	
4	
1	
0	
3	
6	
5	
4	
1	
4	
0	
2	
1	
2	
4	
2	
4	
2	
3	
2	
4	
3	
1	
3	
3	
0	
2	
0	
4	
4	
4	
2	
3	
4	
2	
6	
4	
2	
5	
1	
1	
1	
4	
1	
2	
6	
2	
5	
5	
7	
2	
4	
4	
4	
2	
2	
9	
5	
4	
6	
1	
3	
2	
3	
2	
4	
4	
1	
3	
4	
6	
4	
4	
2	
1	
2	
2	
4	
3	
2	
3	
4	
3	
4	
2	
5	
7	
5	
5	
6	
2	
2	
4	
4	
6	
3	
2	
5	
4	
3	
4	
6	
2	
2	
5	
2	
3	
1	
3	
2	
3	
0	
5	
3	
2	
3	
3	
2	
2	
5	
1	
4	
3	
4	
2	
3	
3	
3	
2	
2	
3	
2	
2	
2	
2	
2	
2	
4	
5	
2	
4	
7	
3	
2	
1	
2	
3	
3	
1	
2	
1	
2	
6	
4	
4	
5	
5	
6	
2	
2	
6	
4	
3	
2	
4	
4	
6	
4	
1	
6	
3	
7	
1	
4	
1	
0	
0	
4	
2	
5	
4	
3	
2	
1	
3	
2	
2	
1	
6	
1	
2	
3	
6	
3	
6	
5	
2	
4	
6	
2	
5	
4	
2	
2	
2	
5	
1	
2	
8	
3	
4	
1	
5	
2	
3	
4	
3	
3	
2	
2	
5	
2	
6	
2	
6	
5	
3	
2	
3	
1	
0	
3	
2	
3	
3	
3	
3	
2	
3	
3	
3	
4	
0	
0	
4	
7	
2	
0	
3	
3	
2	
4	
5	
2	
2	
1	
2	
4	
10	
1	
1	
3	
1	
2	
6	
3	
5	
3	
1	
2	
3	
2	
4	
3	
3	
3	
0	
2	
2	
3	
2	
4	
4	
1	
7	
3	
2	
7	
4	
2	
2	
2	
3	
4	
3	
3	
3	
4	
3	
1	
2	
3	
5	
3	
2	
2	
2	
8	
3	
0	
1	
1	
4	
7	
3	
3	
1	
0	
4	
2	
0	
2	
1	
3	
3	
6	
2	
4	
0	
6	
5	
3	
7	
1	
2	
4	
1	
3	
8	
2	
4	
3	
3	
5	
3	
2	
3	
3	
4	
3	
3	
3	
2	
4	
0	
2	
0	
0	
1	
5	
3	
2	
1	
1	
2	
2	
5	
2	
4	
4	
5	
2	
3	
2	
3	
2	
1	
4	
4	
2	
2	
7	
0	
4	
0	
2	
1	
2	
4	
3	
4	
5	
0	
3	
2	
6	
1	
4	
1	
2	
3	
3	
5	
1	
3	
3	
3	
3	
4	
2	
4	
1	
5	
8	
2	
2	
4	
2	
3	
8	
1	
0	
1	
4	
6	
2	
3	
3	
6	
2	
1	
4	
6	
4	
3	
2	
2	
3	
3	
1	
3	
2	
2	
4	
2	
2	
6	
3	
2	
2	
4	
1	
2	
1	
0	
0	
1	
2	
4	
4	
1	
3	
3	
3	
2	
2	
2	
4	
3	
2	
3	
2	
4	
4	
1	
3	
2	
4	
1	
2	
3	
5	
3	
0	
0	
1	
3	
2	
3	
2	
2	
3	
3	
3	
1	
6	
3	
3	
1	
3	
3	
2	
3	
2	
2	
2	
4	
4	
0	
3	
1	
4	
2	
2	
2	
2	
6	
2	
7	
2	
4	
4	
2	
0	
0	
2	
4	
2	
4	
4	
2	
6	
1	
1	
2	
1	
0	
1	
1	
2	
2	
6	
0	
1	
1	
4	
3	
0	
2	
1	
1	
2	
4	
3	
2	
3	
3	
2	
6	
5	
3	
1	
3	
3	
2	
2	
0	
3	
0	
3	
2	
3	
4	
3	
5	
4	
1	
3	
3	
7	
6	
4	
2	
1	
3	
1	
3	
2	
1	
2	
6	
5	
2	
4	
3	
1	
1	
1	
2	
2	
5	
1	
1	
1	
1	
2	
2	
0	
4	
3	
4	
4	
1	
0	
1	
0	
2	
2	
4	
1	
8	
2	
2	
1	
1	
3	
3	
3	
2	
3	
2	
3	
2	
3	
2	
4	
4	
5	
1	
3	
4	
5	
3	
4	
6	
3	
1	
3	
3	
4	
1	
3	
3	
1	
4	
3	
5	
3	
2	
3	
1	
3	
1	
0	
2	
0	
4	
3	
2	
2	
2	
3	
3	
3	
3	
1	
3	
3	
2	
3	
2	
5	
4	
4	
2	
4	
3	
3	
0	
1	
0	
0	
1	
3	
2	
2	
3	
1	
3	
0	
4	
2	
2	
4	
3	
3	
2	
2	
5	
3	
3	
2	
3	
2	
3	
1	
2	
1	
4	
1	
1	
2	
0	
2	
2	
2	
4	
2	
5	
2	
3	
3	
0	
0	
0	
4	
2	
1	
4	
1	
1	
1	
5	
4	
5	
4	
1	
3	
1	
3	
1	
1	
4	
3	
1	
1	
0	
3	
3	
3	
1	
1	
2	
2	
5	
2	
3	
3	
2	
3	
3	
1	
0	
5	
0	
3	
1	
4	
3	
1	
1	
1	
2	
1	
1	
5	
2	
8	
1	
3	
0	
2	
3	
2	
3	
3	
3	
3	
2	
3	
1	
4	
2	
3	
1	
3	
3	
1	
3	
3	
1	
2	
1	
2	
2	
4	
2	
2	
2	
0	
2	
4	
4	
2	
2	
1	
5	
1	
2	
3	
4	
2	
1	
2	
1	
4	
2	
3	
0	
1	
2	
2	
3	
1	
2	
1	
3	
5	
4	
0	
1	
2	
2	
2	
1	
3	
2	
5	
3	
2	
4	
2	
4	
1	
4	
3	
4	
2	
1	
2	
1	
0	
1	
2	
4	
2	
2	
3	
2	
4	
1	
1	
1	
2	
5	
4	
6	
3	
0	
0	
1	
4	
3	
1	
3	
2	
0	
0	
4	
6	
0	
3	
1	
2	
1	
2	
2	
2	
3	
1	
2	
2	
4	
0	
2	
3	
1	
2	
1	
2	
2	
0	
0	
2	
3	
4	
0	
3	
0	
0	
2	
2	
1	
3	
2	
3	
2	
1	
2	
2	
1	
3	
2	
2	
1	
3	
3	
1	
1	
1	
0	
4	
1	
1	
1	
1	
1	
3	
5	
4	
1	
2	
3	
2	
2	
1	
6	
3	
1	
6	
2	
1	
1	
2	
1	
4	
2	
5	
4	
2	
0	
0	
3	
1	
3	
2	
3	
0	
6	
2	
1	
2	
5	
3	
0	
3	
1	
0	
1	
3	
1	
1	
4	
4	
2	
4	
2	
5	
4	
3	
0	
3	
3	
1	
1	
1	
3	
3	
7	
3	
4	
0	
3	
5	
2	
3	
3	
0	
3	
4	
0	
2	
1	
1	
1	
4	
2	
2	
4	
2	
2	
1	
0	
3	
2	
1	
1	
2	
1	
2	
3	
0	
2	
5	
5	
1	
2	
4	
3	
3	
0	
6	
3	
3	
2	
1	
0	
2	
2	
0	
1	
0	
2	
0	
2	
1	
2	
0	
3	
1	
3	
1	
2	
3	
0	
2	
4	
4	
3	
1	
1	
4	
4	
2	
1	
2	
3	
2	
1	
1	
2	
2	
5	
4	
1	
2	
3	
0	
0	
1	
0	
2	
3	
1	
2	
1	
3	
1	
4	
3	
2	
2	
1	
3	
2	
1	
1	
2	
1	
3	
2	
0	
2	
3	
2	
2	
4	
2	
3	
1	
1	
3	
0	
0	
5	
1	
1	
2	
6	
2	
2	
3	
4	
1	
2	
3	
4	
0	
3	
2	
3	
0	
2	
0	
3	
1	
2	
2	
3	
1	
2	
2	
2	
3	
2	
1	
1	
4	
1	
2	
4	
2	
3	
3	
4	
2	
1	
3	
1	
1	
3	
1	
2	
4	
0	
1	
5	
1	
2	
2	
3	
3	
2	
0	
1	
2	
2	
2	
2	
3	
2	
1	
3	
2	
3	
1	
1	
3	
1	
1	
2	
2	
0	
0	
2	
0	
1	
1	
2	
1	
3	
2	
2	
0	
3	
4	
1	
2	
5	
3	
2	
1	
1	
2	
3	
2	
1	
2	
1	
3	
2	
1	
2	
1	
3	
0	
5	
4	
2	
3	
0	
1	
3	
4	
2	
1	
0	
2	
0	
1	
5	
3	
0	
0	
0	
0	
3	
1	
6	
4	
3	
3	
3	
1	
5	
1	
1	
2	
2	
3	
2	
5	
2	
3	
2	
3	
1	
1	
1	
2	
2	
0	
3	
2	
3	
1	
3	
2	
0	
3	
4	
0	
1	
2	
1	
2	
3	
0	
2	
1	
1	
0	
3	
1	
2	
1	
4	
5	
1	
4	
5	
3	
0	
1	
2	
1	
3	
2	
5	
0	
1	
1	
1	
3	
1	
2	
3	
1	
1	
3	
5	
5	
1	
0	
2	
2	
3	
0	
0	
1	
3	
4	
2	
4	
1	
4	
2	
2	
1	
4	
2	
0	
0	
1	
0	
3	
4	
0	
1	
2	
1	
1	
2	
2	
1	
0	
1	
1	
2	
0	
1	
1	
2	
1	
3	
1	
1	
2	
0	
5	
2	
0	
1	
2	
0	
4	
2	
3	
0	
3	
1	
3	
2	
2	
0	
1	
5	
2	
0	
2	
7	
3	
2	
1	
3	
1	
2	
0	
1	
2	
3	
1	
2	
1	
2	
2	
1	
1	
0	
2	
1	
0	
3	
3	
1	
2	
0	
4	
1	
4	
2	
0	
0	
2	
2	
0	
0	
0	
3	
2	
1	
0	
3	
0	
1	
2	
0	
1	
1	
2	
0	
3	
2	
4	
1	
1	
4	
2	
3	
5	
1	
3	
2	
5	
2	
2	
0	
1	
1	
3	
1	
1	
2	
2	
2	
2	
2	
1	
3	
3	
0	
2	
3	
3	
3	
0	
1	
2	
2	
0	
0	
0	
4	
0	
2	
0	
1	
0	
3	
4	
4	
0	
0	
4	
1	
4	
5	
1	
1	
2	
4	
1	
2	
1	
1	
2	
0	
3	
5	
1	
1	
0	
0	
0	
1	
1	
0	
3	
0	
1	
0	
1	
2	
2	
1	
1	
1	
1	
2	
0	
1	
2	
3	
1	
5	
5	
3	
1	
0	
1	
2	
1	
1	
1	
0	
3	
1	
0	
3	
3	
1	
2	
2	
2	
1	
1	
1	
1	
4	
1	
2	
5	
2	
4	
2	
1	
2	
1	
0	
3	
3	
3	
2	
4	
1	
4	
7	
0	
3	
0	
1	
1	
0	
2	
2	
1	
1	
2	
1	
4	
0	
1	
2	
1	
3	
2	
1	
1	
5	
1	
2	
4	
4	
2	
2	
2	
2	
2	
2	
2	
2	
0	
1	
1	
1	
3	
2	
2	
0	
1	
0	
2	
2	
5	
5	
2	
2	
4	
1	
1	
4	
4	
1	
1	
1	
2	
5	
1	
2	
2	
2	
0	
2	
1	
1	
0	
5	
2	
1	
0	
0	
1	
4	
2	
2	
1	
1	
2	
0	
1	
4	
0	
1	
4	
2	
4	
2	
1	
1	
2	
4	
2	
4	
3	
0	
3	
1	
0	
2	
4	
1	
3	
2	
2	
3	
1	
3	
1	
0	
2	
2	
1	
3	
2	
0	
0	
2	
2	
2	
4	
1	
4	
1	
1	
0	
2	
1	
1	
5	
2	
1	
3	
4	
1	
4	
1	
1	
3	
0	
1	
2	
3	
0	
0	
1	
2	
2	
3	
3	
1	
2	
1	
1	
1	
1	
3	
1	
0	
3	
0	
1	
2	
0	
0	
3	
2	
0	
1	
1	
1	
0	
1	
0	
2	
0	
2	
1	
1	
1	
2	
2	
2	
1	
0	
5	
3	
2	
1	
1	
3	
2	
2	
0	
3	
5	
1	
5	
3	
1	
2	
0	
2	
1	
3	
2	
0	
2	
3	
4	
1	
0	
1	
1	
3	
2	
2	
2	
6	
2	
2	
2	
1	
1	
2	
3	
5	
1	
2	
2	
0	
3	
2	
1	
0	
1	
0	
2	
0	
2	
2	
1	
3	
0	
2	
0	
1	
1	
3	
0	
1	
1	
2	
1	
1	
1	
3	
3	
2	
1	
2	
3	
4	
1	
1	
0	
3	
1	
2	
1	
4	
3	
1	
3	
2	
0	
3	
1	
1	
0	
1	
1	
0	
4	
2	
1	
1	
1	
2	
0	
2	
2	
0	
0	
2	
1	
1	
2	
0	
1	
4	
0	
1	
0	
1	
1	
0	
2	
1	
4	
3	
0	
1	
0	
1	
0	
1	
0	
1	
1	
2	
1	
1	
2	
3	
0	
3	
0	
1	
0	
1	
1	
1	
0	
1	
1	
2	
1	
2	
2	
0	
4	
1	
1	
0	
0	
5	
1	
2	
2	
0	
0	
0	
2	
2	
1	
0	
1	
1	
1	
3	
2	
1	
1	
1	
3	
0	
0	
6	
2	
1	
1	
3	
1	
1	
1	
2	
1	
2	
0	
0	
0	
2	
4	
2	
4	
3	
2	
0	
1	
2	
0	
2	
5	
1	
2	
1	
1	
2	
0	
1	
3	
2	
1	
4	
1	
4	
2	
3	
1	
2	
3	
1	
3	
3	
1	
1	
3	
1	
2	
2	
2	
2	
1	
1	
2	
1	
1	
3	
1	
0	
0	
3	
2	
2	
1	
1	
1	
0	
3	
1	
1	
2	
3	
3	
1	
3	
2	
0	
1	
1	
1	
2	
0	
0	
2	
2	
0	
1	
1	
0	
1	
3	
0	
0	
0	
0	
0	
2	
1	
1	
4	
2	
1	
4	
2	
0	
1	
1	
1	
0	
3	
0	
2	
0	
1	
0	
3	
2	
1	
2	
1	
5	
1	
1	
0	
2	
2	
1	
1	
3	
1	
1	
1	
3	
2	
2	
1	
0	
2	
4	
1	
1	
2	
1	
0	
0	
1	
0	
0	
2	
1	
2	
2	
2	
2	
2	
1	
1	
1	
2	
2	
1	
2	
0	
0	
0	
2	
1	
0	
0	
3	
3	
0	
3	
3	
3	
1	
1	
2	
1	
3	
3	
1	
3	
1	
2	
0	
0	
1	
1	
0	
1	
0	
2	
1	
2	
1	
0	
2	
1	
2	
3	
0	
1	
0	
0	
2	
1	
1	
5	
0	
0	
1	
3	
1	
0	
1	
2	
0	
0	
2	
1	
2	
1	
1	
2	
0	
0	
2	
0	
0	
3	
2	
2	
1	
1	
1	
1	
0	
2	
1	
0	
2	
1	
3	
2	
0	
0	
1	
2	
0	
0	
2	
3	
2	
0	
1	
1	
1	
1	
2	
0	
3	
2	
3	
0	
0	
0	
2	
2	
0	
2	
1	
0	
2	
1	
2	
2	
2	
0	
1	
3	
1	
1	
3	
0	
2	
0	
1	
1	
1	
1	
3	
1	
1	
0	
1	
2	
3	
0	
0	
3	
1	
0	
1	
1	
2	
4	
1	
0	
3	
1	
2	
3	
2	
0	
0	
1	
1	
1	
1	
0	
1	
1	
2	
2	
0	
2	
5	
0	
0	
1	
3	
1	
0	
0	
1	
0	
2	
2	
0	
1	
2	
1	
1	
2	
1	
2	
0	
0	
0	
2	
1	
0	
1	
0	
2	
1	
0	
2	
2	
1	
1	
1	
0	
3	
3	
0	
1	
0	
0	
2	
5	
3	
0	
1	
4	
0	
1	
1	
0	
2	
1	
2	
4	
2	
1	
1	
2	
3	
0	
1	
0	
3	
2	
4	
2	
2	
2	
0	
3	
1	
0	
1	
2	
0	
2	
1	
4	
3	
0	
2	
0	
2	
1	
5	
3	
3	
1	
2	
2	
1	
1	
3	
1	
1	
0	
1	
1	
0	
0	
1	
2	
0	
2	
2	
0	
0	
1	
1	
3	
0	
2	
1	
3	
2	
1	
3	
1	
2	
4	
1	
2	
2	
2	
1	
2	
0	
0	
2	
1	
1	
0	
1	
1	
2	
1	
2	
0	
1	
2	
0	
0	
1	
0	
3	
2	
2	
2	
0	
1	
2	
2	
2	
2	
2	
0	
4	
0	
0	
1	
2	
2	
2	
0	
1	
1	
1	
0	
2	
1	
0	
2	
0	
1	
3	
0	
1	
1	
0	
0	
0	
1	
3	
3	
1	
1	
2	
2	
1	
2	
2	
2	
1	
0	
1	
2	
2	
1	
0	
1	
1	
0	
3	
1	
1	
1	
1	
2	
0	
0	
0	
1	
2	
3	
0	
2	
2	
1	
1	
0	
1	
1	
1	
1	
0	
4	
5	
1	
0	
0	
0	
1	
1	
3	
4	
2	
2	
1	
1	
3	
0	
1	
0	
1	
0	
1	
2	
0	
1	
2	
1	
0	
3	
1	
2	
0	
0	
0	
2	
1	
0	
2	
3	
0	
1	
3	
0	
2	
2	
4	
4	
1	
1	
0	
1	
1	
1	
3	
1	
0	
1	
0	
1	
2	
2	
3	
2	
2	
1	
1	
3	
4	
1	
0	
1	
2	
2	
0	
3	
0	
1	
0	
1	
1	
0	
1	
2	
0	
1	
0	
1	
0	
1	
0	
0	
1	
0	
2	
1	
2	
2	
2	
1	
3	
2	
0	
0	
0	
1	
1	
1	
1	
2	
2	
3	
0	
0	
1	
2	
2	
2	
0	
2	
3	
1	
4	
3	
1	
0	
1	
2	
2	
0	
1	
1	
2	
1	
3	
1	
5	
0	
0	
1	
2	
3	
0	
1	
1	
0	
2	
1	
0	
1	
0	
1	
2	
0	
1	
1	
0	
0	
1	
0	
1	
0	
2	
2	
0	
1	
1	
0	
2	
0	
0	
0	
1	
1	
0	
1	
0	
3	
2	
1	
1	
1	
1	
4	
2	
1	
2	
0	
0	
1	
1	
1	
0	
1	
2	
1	
2	
2	
2	
0	
1	
1	
1	
1	
3	
0	
2	
0	
1	
3	
0	
2	
1	
1	
0	
2	
2	
1	
3	
0	
1	
3	
1	
2	
1	
1	
2	
2	
0	
0	
5	
1	
0	
2	
2	
1	
0	
2	
1	
1	
2	
1	
0	
1	
3	
1	
2	
2	
4	
0	
0	
2	
1	
2	
2	
1	
2	
1	
2	
1	
2	
1	
1	
1	
2	
1	
2	
1	
0	
0	
1	
1	
1	
1	
0	
3	
0	
0	
1	
2	
2	
3	
1	
3	
0	
2	
1	
2	
0	
2	
1	
1	
1	
1	
1	
2	
0	
3	
3	
2	
0	
1	
2	
1	
2	
1	
0	
2	
3	
1	
1	
0	
2	
1	
1	
1	
0	
0	
3	
1	
0	
1	
1	
0	
1	
1	
1	
1	
0	
0	
2	
0	
2	
1	
3	
2	
2	
2	
0	
1	
5	
2	
0	
1	
0	
1	
0	
0	
1	
0	
0	
0	
1	
1	
0	
0	
2	
0	
2	
4	
3	
2	
0	
1	
1	
1	
1	
2	
0	
0	
1	
2	
2	
1	
1	
1	
2	
1	
0	
1	
0	
2	
2	
1	
4	
3	
2	
1	
3	
5	
2	
2	
3	
2	
0	
0	
1	
1	
3	
0	
2	
1	
0	
2	
0	
1	
0	
1	
1	
1	
2	
0	
1	
0	
0	
1	
1	
1	
2	
1	
1	
1	
0	
0	
1	
0	
0	
0	
1	
0	
0	
2	
1	
2	
0	
0	
1	
0	
3	
2	
1	
2	
0	
1	
0	
0	
1	
0	
