#PicoHarp 300  Histogram Data			04/21/2022 03:47:21 PM
#channels per curve
31250
#display curve no.
0	
#memory block no.
0	
#ns/channel
0.0320	
#counts
1	
1	
0	
0	
1	
0	
0	
0	
0	
1	
0	
1	
2	
0	
0	
0	
0	
1	
0	
1	
0	
1	
1	
0	
2	
1	
0	
0	
1	
0	
0	
3	
1	
1	
0	
0	
0	
0	
0	
2	
1	
1	
0	
1	
0	
1	
0	
0	
2	
1	
0	
0	
1	
0	
0	
0	
0	
0	
0	
1	
0	
0	
1	
1	
1	
0	
1	
0	
0	
1	
0	
2	
0	
0	
2	
0	
2	
2	
1	
1	
0	
0	
2	
0	
0	
0	
1	
0	
0	
1	
1	
0	
0	
0	
0	
0	
0	
0	
1	
0	
1	
1	
0	
2	
0	
0	
0	
0	
0	
1	
0	
0	
0	
1	
0	
1	
1	
0	
0	
0	
1	
0	
0	
2	
0	
0	
0	
0	
0	
0	
0	
1	
1	
2	
0	
0	
2	
1	
1	
1	
0	
0	
0	
0	
2	
0	
1	
0	
0	
0	
0	
2	
1	
1	
0	
0	
1	
0	
0	
0	
0	
0	
1	
0	
0	
0	
0	
0	
1	
1	
0	
0	
2	
0	
2	
0	
1	
1	
1	
0	
1	
0	
1	
0	
0	
1	
0	
0	
0	
0	
0	
0	
0	
0	
0	
1	
0	
0	
0	
0	
0	
0	
1	
0	
1	
0	
0	
1	
1	
0	
0	
0	
1	
1	
0	
1	
0	
0	
0	
0	
0	
0	
0	
0	
1	
0	
0	
0	
0	
0	
0	
0	
1	
0	
0	
1	
0	
1	
0	
0	
0	
0	
0	
0	
0	
0	
1	
0	
1	
1	
1	
0	
0	
0	
0	
0	
0	
0	
1	
0	
0	
0	
0	
0	
0	
0	
3	
0	
0	
0	
1	
0	
1	
0	
0	
0	
0	
1	
1	
2	
0	
0	
1	
1	
0	
0	
0	
4	
0	
0	
1	
1	
1	
0	
1	
0	
0	
0	
2	
0	
0	
0	
0	
0	
1	
0	
0	
0	
0	
1	
1	
0	
1	
1	
0	
1	
0	
0	
0	
0	
1	
1	
1	
1	
0	
0	
1	
0	
1	
0	
1	
0	
0	
1	
0	
0	
1	
0	
0	
1	
1	
0	
0	
0	
1	
1	
1	
2	
1	
0	
0	
0	
1	
0	
0	
0	
0	
1	
1	
0	
0	
0	
1	
0	
1	
0	
1	
0	
1	
0	
0	
0	
1	
0	
0	
0	
0	
2	
0	
1	
2	
0	
1	
0	
0	
0	
0	
3	
1	
1	
0	
1	
0	
0	
2	
0	
0	
3	
1	
0	
0	
0	
1	
1	
0	
1	
0	
0	
0	
0	
1	
1	
1	
1	
0	
0	
0	
2	
2	
0	
0	
0	
1	
0	
0	
0	
1	
0	
0	
0	
0	
0	
0	
0	
0	
0	
1	
0	
0	
1	
0	
2	
0	
1	
0	
0	
1	
1	
2	
0	
2	
0	
0	
0	
2	
0	
0	
0	
0	
0	
0	
0	
0	
0	
0	
2	
0	
0	
0	
0	
1	
0	
0	
2	
1	
0	
0	
0	
0	
1	
0	
1	
0	
1	
1	
1	
1	
0	
4	
0	
0	
0	
0	
1	
0	
0	
2	
0	
0	
0	
0	
0	
1	
1	
0	
1	
0	
0	
1	
0	
1	
0	
2	
0	
0	
1	
1	
0	
1	
0	
0	
1	
0	
1	
1	
0	
0	
0	
1	
0	
0	
0	
1	
0	
0	
0	
0	
0	
0	
0	
1	
0	
0	
0	
0	
0	
1	
0	
0	
1	
1	
0	
1	
1	
1	
0	
0	
0	
0	
2	
0	
1	
0	
1	
0	
1	
0	
1	
0	
0	
0	
0	
0	
1	
1	
0	
0	
2	
0	
0	
0	
1	
0	
0	
0	
0	
0	
0	
0	
0	
3	
0	
1	
0	
0	
1	
0	
0	
2	
3	
1	
1	
0	
0	
0	
1	
1	
0	
2	
0	
0	
2	
0	
2	
1	
0	
0	
1	
0	
0	
2	
0	
1	
2	
1	
1	
0	
0	
0	
0	
1	
0	
1	
1	
0	
0	
0	
1	
0	
1	
0	
0	
1	
0	
0	
0	
0	
0	
0	
0	
0	
0	
0	
1	
0	
2	
0	
1	
1	
0	
0	
2	
0	
1	
0	
1	
0	
0	
1	
1	
0	
1	
0	
0	
0	
0	
0	
0	
0	
0	
0	
2	
1	
0	
0	
0	
2	
0	
0	
0	
0	
2	
2	
0	
0	
1	
0	
0	
0	
1	
1	
0	
0	
0	
1	
0	
0	
0	
0	
0	
0	
0	
0	
0	
1	
1	
2	
0	
1	
0	
0	
0	
0	
1	
0	
0	
0	
0	
0	
1	
1	
0	
1	
1	
0	
0	
0	
0	
0	
1	
1	
0	
0	
1	
0	
0	
0	
1	
2	
0	
0	
0	
0	
1	
0	
0	
0	
3	
0	
0	
0	
0	
0	
0	
0	
0	
0	
1	
2	
1	
0	
0	
1	
0	
1	
1	
0	
1	
1	
0	
0	
0	
1	
1	
0	
0	
0	
0	
0	
2	
1	
0	
0	
1	
2	
0	
0	
1	
0	
0	
0	
1	
0	
0	
1	
0	
0	
0	
0	
0	
1	
0	
0	
0	
1	
1	
2	
1	
1	
1	
0	
0	
0	
0	
0	
0	
0	
0	
0	
0	
0	
1	
1	
2	
0	
0	
3	
1	
1	
0	
0	
1	
1	
1	
0	
0	
0	
1	
0	
1	
0	
0	
2	
0	
0	
0	
1	
1	
1	
0	
0	
1	
0	
0	
1	
0	
0	
0	
0	
0	
0	
0	
0	
0	
0	
0	
0	
1	
0	
0	
0	
1	
0	
1	
0	
0	
1	
1	
0	
0	
0	
0	
1	
0	
0	
1	
0	
1	
0	
0	
0	
1	
0	
0	
1	
0	
0	
0	
1	
1	
3	
0	
0	
0	
0	
0	
0	
0	
0	
1	
1	
0	
2	
1	
1	
1	
0	
0	
0	
0	
1	
3	
1	
0	
0	
0	
1	
0	
2	
0	
1	
1	
1	
0	
0	
0	
1	
1	
1	
0	
0	
0	
0	
2	
0	
0	
0	
0	
0	
3	
1	
0	
0	
0	
0	
1	
1	
1	
1	
2	
3	
0	
0	
3	
1	
4	
5	
2	
9	
6	
5	
6	
2	
6	
10	
7	
14	
12	
14	
18	
20	
19	
17	
23	
34	
22	
35	
36	
28	
49	
60	
48	
54	
39	
60	
59	
58	
62	
74	
62	
61	
65	
78	
82	
77	
85	
100	
78	
70	
80	
82	
65	
87	
82	
81	
69	
97	
79	
77	
83	
70	
85	
80	
94	
76	
73	
88	
72	
69	
53	
76	
79	
69	
76	
77	
81	
66	
66	
88	
57	
88	
78	
73	
67	
66	
76	
78	
72	
73	
71	
84	
57	
64	
68	
61	
74	
76	
94	
76	
83	
78	
74	
83	
77	
82	
60	
69	
82	
65	
79	
61	
73	
66	
61	
57	
72	
68	
70	
75	
64	
67	
88	
67	
70	
55	
58	
68	
81	
68	
72	
60	
70	
79	
70	
69	
74	
78	
63	
74	
54	
75	
68	
59	
60	
83	
62	
56	
69	
63	
74	
62	
64	
57	
59	
57	
59	
71	
72	
78	
68	
62	
68	
64	
71	
66	
72	
70	
70	
65	
60	
65	
67	
58	
66	
53	
62	
73	
64	
52	
60	
61	
71	
80	
76	
67	
53	
59	
62	
70	
74	
57	
66	
76	
63	
63	
60	
74	
57	
62	
61	
67	
52	
64	
53	
56	
60	
59	
55	
54	
52	
58	
49	
61	
58	
61	
58	
51	
58	
63	
56	
65	
49	
67	
59	
49	
67	
59	
48	
57	
74	
56	
53	
64	
55	
68	
57	
62	
60	
66	
52	
58	
62	
52	
58	
62	
57	
48	
59	
49	
56	
58	
64	
69	
50	
61	
70	
57	
53	
58	
59	
64	
61	
53	
49	
57	
45	
59	
50	
55	
51	
54	
37	
51	
65	
60	
60	
59	
58	
46	
54	
47	
50	
54	
44	
52	
59	
47	
57	
61	
57	
55	
57	
52	
61	
45	
72	
50	
50	
57	
70	
60	
53	
41	
42	
65	
52	
55	
51	
62	
44	
56	
57	
55	
51	
57	
54	
49	
52	
48	
41	
50	
50	
46	
45	
51	
53	
44	
52	
59	
62	
37	
52	
39	
75	
41	
62	
56	
54	
49	
66	
45	
52	
54	
58	
52	
55	
51	
46	
47	
47	
56	
41	
59	
44	
63	
52	
55	
52	
54	
44	
51	
39	
52	
51	
53	
65	
42	
46	
39	
54	
53	
47	
52	
48	
50	
60	
50	
44	
51	
44	
49	
50	
52	
34	
48	
49	
50	
49	
47	
49	
51	
38	
50	
38	
35	
47	
40	
52	
53	
40	
50	
51	
47	
47	
44	
49	
46	
41	
55	
43	
47	
40	
39	
44	
54	
49	
46	
48	
38	
50	
48	
42	
50	
59	
48	
44	
50	
58	
42	
47	
46	
51	
43	
54	
39	
47	
54	
41	
50	
32	
49	
46	
52	
52	
54	
43	
52	
50	
45	
49	
43	
42	
47	
39	
38	
51	
36	
40	
56	
34	
39	
37	
62	
47	
44	
57	
57	
38	
49	
44	
36	
48	
48	
50	
42	
45	
46	
62	
45	
42	
29	
44	
52	
35	
50	
42	
37	
48	
45	
40	
45	
53	
40	
52	
46	
36	
53	
59	
38	
36	
51	
44	
46	
41	
48	
34	
36	
51	
53	
38	
33	
38	
46	
48	
39	
39	
37	
48	
38	
49	
48	
49	
42	
40	
43	
40	
48	
48	
33	
54	
42	
34	
37	
49	
34	
44	
36	
40	
55	
37	
37	
25	
37	
43	
48	
30	
50	
40	
48	
32	
34	
50	
30	
35	
46	
38	
49	
30	
36	
36	
41	
38	
37	
45	
40	
34	
40	
44	
37	
30	
42	
45	
33	
37	
29	
44	
46	
48	
39	
39	
31	
40	
43	
40	
34	
48	
36	
41	
35	
40	
29	
41	
43	
41	
36	
39	
47	
21	
43	
43	
55	
48	
44	
41	
44	
42	
29	
46	
46	
51	
47	
43	
30	
41	
47	
44	
32	
30	
44	
30	
48	
43	
42	
34	
49	
44	
31	
37	
42	
45	
37	
39	
41	
38	
35	
34	
39	
49	
39	
42	
29	
34	
31	
34	
38	
43	
40	
41	
40	
41	
36	
44	
43	
59	
35	
48	
38	
41	
52	
31	
36	
34	
31	
31	
42	
41	
44	
37	
35	
38	
31	
34	
51	
36	
34	
28	
30	
53	
39	
35	
35	
38	
41	
43	
40	
46	
33	
35	
42	
29	
41	
40	
32	
35	
30	
32	
51	
34	
35	
33	
42	
41	
37	
36	
30	
32	
43	
31	
51	
45	
34	
43	
36	
31	
40	
37	
45	
29	
36	
42	
38	
34	
39	
40	
33	
29	
41	
40	
32	
32	
41	
31	
36	
35	
43	
40	
40	
31	
47	
28	
35	
40	
49	
42	
35	
37	
32	
44	
46	
39	
30	
35	
30	
45	
40	
47	
51	
21	
25	
28	
33	
43	
41	
25	
36	
40	
42	
38	
32	
28	
23	
30	
32	
30	
28	
39	
33	
37	
42	
30	
36	
36	
40	
32	
28	
34	
38	
34	
32	
37	
28	
31	
33	
36	
30	
46	
44	
44	
34	
30	
21	
33	
41	
36	
29	
33	
45	
29	
45	
37	
46	
42	
40	
35	
27	
34	
28	
36	
33	
28	
38	
29	
29	
36	
31	
38	
27	
42	
36	
40	
36	
25	
25	
33	
33	
29	
27	
38	
30	
40	
35	
36	
31	
21	
28	
25	
38	
38	
31	
24	
27	
38	
34	
36	
33	
37	
36	
33	
38	
35	
34	
29	
34	
36	
33	
28	
40	
35	
26	
33	
35	
36	
36	
41	
31	
36	
21	
24	
38	
24	
34	
38	
35	
35	
30	
29	
35	
24	
28	
33	
31	
26	
34	
28	
33	
36	
32	
26	
30	
29	
29	
37	
26	
34	
35	
37	
24	
21	
45	
32	
28	
28	
32	
35	
29	
28	
22	
32	
26	
37	
35	
33	
29	
32	
29	
19	
38	
32	
27	
31	
30	
33	
36	
38	
25	
36	
31	
38	
29	
29	
34	
33	
26	
26	
34	
32	
26	
26	
35	
25	
31	
26	
27	
24	
25	
34	
21	
31	
34	
37	
22	
28	
30	
23	
30	
32	
30	
24	
29	
30	
27	
23	
27	
21	
27	
37	
28	
24	
38	
31	
27	
20	
45	
33	
20	
26	
28	
23	
29	
28	
37	
25	
24	
33	
25	
28	
39	
31	
24	
30	
18	
31	
35	
29	
27	
29	
29	
33	
38	
36	
35	
35	
32	
31	
26	
26	
20	
24	
27	
35	
27	
25	
37	
21	
24	
33	
34	
18	
26	
21	
24	
26	
31	
29	
26	
26	
37	
34	
38	
39	
30	
39	
18	
31	
30	
34	
30	
23	
26	
29	
23	
23	
41	
26	
23	
25	
36	
30	
23	
21	
27	
28	
24	
23	
30	
25	
20	
30	
26	
30	
23	
26	
32	
22	
30	
32	
28	
33	
34	
21	
28	
26	
20	
35	
20	
26	
25	
25	
27	
30	
34	
38	
25	
27	
34	
28	
28	
29	
21	
19	
22	
16	
28	
23	
30	
31	
39	
32	
27	
20	
33	
27	
27	
28	
17	
21	
26	
30	
27	
23	
28	
35	
24	
24	
21	
21	
32	
23	
32	
32	
24	
28	
31	
28	
22	
20	
32	
39	
30	
19	
30	
28	
24	
25	
21	
27	
22	
23	
23	
26	
20	
29	
36	
23	
29	
29	
34	
28	
23	
32	
29	
25	
29	
25	
17	
25	
24	
29	
30	
32	
19	
25	
20	
25	
35	
23	
22	
26	
22	
29	
30	
24	
26	
27	
27	
28	
25	
31	
27	
21	
26	
36	
18	
31	
32	
26	
32	
30	
24	
27	
20	
26	
21	
31	
31	
25	
27	
20	
16	
34	
30	
25	
24	
18	
17	
23	
28	
23	
22	
31	
17	
14	
28	
28	
19	
29	
26	
24	
24	
27	
34	
17	
29	
14	
35	
17	
25	
32	
27	
22	
16	
33	
15	
19	
19	
22	
22	
24	
28	
30	
29	
27	
27	
32	
10	
17	
22	
23	
19	
28	
22	
28	
17	
29	
25	
26	
22	
31	
25	
26	
17	
24	
23	
26	
25	
18	
23	
22	
23	
18	
20	
26	
20	
24	
18	
25	
27	
30	
23	
27	
22	
23	
29	
17	
17	
19	
28	
34	
24	
22	
20	
24	
24	
25	
28	
27	
23	
25	
28	
19	
17	
21	
27	
23	
14	
17	
19	
23	
36	
22	
27	
26	
21	
22	
24	
20	
40	
27	
26	
20	
32	
25	
26	
32	
30	
32	
24	
24	
20	
23	
25	
24	
21	
21	
18	
17	
26	
20	
20	
32	
17	
28	
22	
18	
18	
28	
25	
18	
16	
23	
18	
13	
23	
23	
23	
30	
33	
20	
26	
32	
21	
16	
18	
26	
29	
26	
25	
22	
27	
12	
18	
20	
26	
27	
21	
23	
20	
16	
23	
32	
29	
31	
21	
20	
22	
18	
26	
20	
26	
16	
24	
17	
31	
23	
15	
27	
23	
22	
15	
15	
22	
21	
13	
27	
29	
20	
26	
17	
23	
24	
19	
24	
28	
21	
31	
16	
14	
19	
21	
18	
27	
13	
22	
17	
26	
22	
17	
25	
18	
15	
18	
29	
20	
22	
19	
23	
21	
34	
20	
15	
20	
18	
20	
23	
23	
19	
15	
24	
23	
24	
15	
14	
26	
21	
24	
29	
27	
22	
17	
24	
22	
25	
25	
21	
22	
14	
18	
25	
18	
27	
20	
21	
20	
19	
20	
21	
23	
20	
16	
20	
22	
21	
14	
21	
27	
17	
18	
24	
19	
28	
19	
22	
18	
21	
18	
24	
18	
15	
17	
19	
22	
22	
21	
25	
21	
23	
19	
27	
14	
21	
17	
18	
26	
23	
18	
17	
23	
20	
15	
24	
16	
20	
18	
23	
23	
14	
15	
13	
15	
12	
25	
16	
18	
21	
17	
12	
17	
25	
17	
31	
16	
17	
14	
22	
20	
23	
18	
19	
25	
14	
19	
26	
15	
20	
22	
21	
19	
10	
15	
21	
23	
30	
17	
22	
20	
18	
14	
22	
27	
15	
16	
16	
12	
14	
23	
21	
18	
15	
17	
19	
18	
28	
21	
26	
22	
16	
19	
12	
15	
20	
21	
21	
21	
13	
13	
16	
16	
17	
26	
20	
20	
20	
17	
12	
23	
20	
11	
19	
24	
18	
27	
17	
18	
22	
20	
24	
15	
20	
16	
14	
17	
19	
18	
21	
14	
26	
24	
20	
18	
17	
17	
22	
19	
14	
23	
23	
21	
14	
15	
21	
17	
14	
14	
19	
17	
13	
20	
19	
27	
18	
18	
22	
15	
12	
25	
21	
15	
21	
19	
21	
18	
14	
8	
17	
19	
27	
16	
15	
22	
22	
20	
15	
14	
12	
18	
20	
19	
21	
20	
19	
15	
22	
22	
27	
18	
19	
19	
16	
26	
23	
18	
10	
13	
20	
19	
20	
21	
23	
21	
20	
18	
16	
20	
11	
18	
17	
20	
20	
15	
13	
15	
17	
8	
16	
22	
24	
17	
12	
16	
18	
24	
20	
20	
16	
13	
16	
13	
19	
14	
15	
19	
21	
16	
18	
20	
19	
22	
10	
22	
19	
12	
16	
19	
21	
14	
15	
16	
19	
15	
16	
10	
21	
19	
14	
19	
18	
17	
14	
10	
19	
19	
17	
22	
16	
17	
14	
20	
9	
31	
12	
14	
12	
15	
19	
17	
14	
22	
12	
16	
11	
17	
9	
18	
15	
18	
12	
21	
22	
18	
12	
19	
17	
14	
17	
10	
16	
17	
15	
19	
26	
25	
8	
17	
14	
18	
21	
11	
19	
22	
14	
15	
18	
16	
16	
17	
12	
19	
17	
16	
14	
24	
15	
18	
10	
15	
16	
13	
8	
16	
13	
20	
19	
16	
15	
18	
23	
13	
17	
21	
16	
16	
14	
17	
26	
18	
14	
15	
17	
17	
21	
8	
22	
20	
15	
19	
25	
19	
15	
14	
13	
13	
15	
15	
13	
20	
16	
14	
14	
7	
13	
20	
14	
15	
17	
13	
17	
17	
14	
22	
15	
21	
16	
19	
22	
20	
21	
14	
18	
18	
14	
12	
17	
18	
18	
18	
14	
25	
15	
7	
18	
17	
14	
18	
17	
16	
14	
23	
20	
21	
15	
15	
13	
16	
18	
16	
15	
21	
16	
15	
13	
17	
12	
12	
15	
19	
19	
11	
12	
8	
18	
20	
19	
16	
20	
15	
7	
11	
16	
15	
16	
17	
11	
21	
12	
15	
17	
16	
14	
14	
11	
18	
16	
18	
15	
13	
13	
11	
25	
20	
12	
12	
15	
12	
16	
23	
20	
14	
16	
10	
13	
19	
10	
19	
16	
15	
11	
15	
21	
18	
18	
12	
19	
15	
17	
18	
13	
17	
12	
19	
10	
12	
17	
11	
15	
11	
26	
16	
15	
17	
15	
15	
18	
15	
12	
12	
20	
17	
11	
16	
18	
15	
15	
12	
25	
10	
24	
14	
16	
18	
10	
18	
22	
13	
15	
13	
12	
10	
15	
9	
15	
12	
12	
14	
18	
9	
15	
16	
15	
17	
18	
19	
13	
25	
13	
20	
21	
12	
13	
12	
18	
20	
21	
11	
15	
15	
7	
18	
24	
15	
16	
14	
19	
18	
9	
14	
7	
8	
18	
15	
22	
12	
13	
14	
14	
16	
19	
10	
8	
20	
12	
13	
15	
14	
15	
13	
8	
26	
10	
12	
14	
10	
15	
17	
14	
11	
15	
14	
16	
13	
18	
16	
14	
25	
12	
15	
15	
17	
19	
20	
14	
8	
10	
16	
10	
9	
15	
18	
11	
14	
13	
11	
9	
16	
8	
8	
16	
14	
9	
16	
7	
12	
15	
22	
14	
19	
20	
17	
12	
19	
12	
21	
11	
13	
9	
13	
23	
19	
14	
21	
11	
14	
20	
11	
17	
11	
10	
13	
19	
16	
11	
12	
15	
10	
15	
15	
13	
16	
7	
11	
9	
7	
15	
13	
17	
15	
12	
16	
15	
7	
16	
14	
12	
8	
14	
24	
8	
11	
9	
18	
9	
11	
17	
16	
13	
11	
13	
13	
10	
5	
8	
13	
17	
20	
11	
10	
21	
16	
13	
18	
14	
18	
6	
14	
18	
13	
14	
12	
14	
16	
18	
15	
10	
13	
18	
15	
12	
21	
9	
10	
11	
16	
16	
18	
7	
12	
13	
11	
17	
8	
14	
15	
11	
22	
9	
13	
18	
16	
16	
10	
17	
22	
14	
9	
15	
18	
11	
14	
12	
19	
17	
14	
7	
13	
10	
11	
12	
13	
13	
10	
13	
16	
10	
16	
17	
10	
9	
10	
14	
17	
20	
13	
13	
9	
18	
21	
10	
12	
9	
20	
12	
14	
14	
10	
8	
25	
12	
13	
10	
9	
12	
13	
12	
7	
17	
13	
9	
12	
11	
9	
12	
9	
10	
18	
9	
18	
12	
9	
9	
12	
16	
11	
14	
13	
10	
18	
14	
10	
14	
9	
14	
13	
10	
16	
7	
19	
13	
11	
11	
9	
11	
9	
10	
11	
13	
9	
12	
11	
10	
9	
13	
19	
18	
14	
17	
16	
5	
14	
14	
13	
21	
11	
13	
14	
7	
12	
14	
23	
14	
16	
21	
12	
14	
13	
12	
9	
13	
18	
18	
7	
16	
23	
8	
13	
10	
17	
4	
10	
19	
7	
16	
22	
9	
10	
10	
14	
11	
11	
12	
18	
18	
12	
17	
8	
7	
9	
15	
14	
18	
4	
11	
13	
10	
13	
10	
8	
9	
17	
15	
13	
12	
12	
13	
14	
14	
15	
11	
16	
15	
10	
11	
6	
15	
16	
12	
12	
15	
19	
12	
16	
18	
5	
13	
8	
9	
13	
13	
6	
13	
12	
14	
13	
9	
9	
17	
12	
7	
15	
13	
14	
13	
5	
10	
8	
15	
13	
12	
8	
9	
11	
8	
11	
3	
9	
15	
13	
11	
16	
12	
12	
15	
14	
18	
14	
6	
12	
5	
10	
8	
17	
11	
14	
7	
11	
11	
10	
12	
8	
10	
13	
9	
10	
13	
8	
15	
6	
19	
12	
12	
11	
11	
14	
8	
11	
10	
10	
9	
14	
8	
9	
13	
7	
7	
7	
9	
12	
8	
8	
12	
12	
16	
12	
14	
16	
11	
17	
16	
16	
8	
13	
9	
10	
12	
8	
10	
11	
17	
11	
11	
10	
14	
10	
9	
10	
10	
5	
13	
10	
7	
10	
14	
10	
12	
13	
15	
6	
5	
14	
17	
8	
12	
13	
24	
13	
12	
12	
12	
12	
14	
10	
11	
11	
9	
16	
13	
8	
10	
15	
13	
10	
17	
8	
7	
8	
8	
5	
9	
11	
13	
12	
20	
10	
15	
13	
12	
10	
15	
7	
9	
14	
12	
14	
11	
8	
10	
11	
6	
12	
10	
10	
14	
10	
10	
12	
9	
9	
12	
7	
11	
11	
12	
11	
19	
13	
10	
20	
11	
6	
9	
14	
13	
7	
10	
5	
11	
11	
14	
17	
10	
18	
13	
13	
8	
13	
4	
7	
13	
7	
11	
12	
15	
18	
12	
19	
8	
9	
14	
8	
16	
10	
12	
10	
6	
13	
10	
5	
10	
13	
13	
7	
18	
11	
6	
6	
15	
15	
10	
16	
8	
7	
13	
10	
13	
7	
6	
20	
8	
10	
10	
9	
15	
13	
11	
10	
13	
9	
11	
10	
13	
7	
9	
12	
11	
11	
14	
8	
8	
4	
13	
13	
7	
7	
7	
12	
9	
10	
6	
12	
9	
14	
9	
8	
10	
11	
11	
14	
14	
13	
11	
6	
9	
6	
11	
13	
9	
20	
15	
8	
8	
8	
13	
14	
8	
10	
7	
12	
13	
7	
16	
11	
13	
8	
10	
10	
12	
17	
12	
10	
6	
10	
16	
5	
4	
7	
12	
14	
8	
10	
13	
14	
6	
11	
9	
8	
10	
7	
14	
14	
13	
13	
9	
12	
9	
9	
16	
12	
6	
9	
10	
8	
9	
8	
13	
13	
16	
15	
10	
5	
13	
15	
6	
20	
9	
12	
9	
12	
10	
11	
9	
12	
10	
12	
6	
14	
11	
6	
14	
9	
8	
9	
4	
10	
11	
16	
12	
12	
15	
6	
9	
12	
11	
10	
15	
9	
11	
8	
16	
16	
11	
13	
13	
6	
13	
11	
12	
18	
7	
10	
7	
11	
10	
7	
13	
14	
7	
8	
3	
12	
15	
14	
8	
8	
14	
7	
20	
11	
13	
7	
11	
6	
9	
7	
9	
14	
9	
12	
12	
9	
6	
4	
11	
10	
9	
10	
8	
7	
12	
7	
8	
8	
10	
10	
12	
10	
14	
17	
12	
5	
10	
6	
8	
3	
9	
16	
13	
8	
10	
11	
6	
13	
12	
7	
11	
6	
10	
12	
12	
8	
10	
9	
7	
16	
9	
14	
12	
13	
9	
6	
8	
7	
8	
8	
6	
12	
9	
7	
12	
9	
8	
14	
14	
10	
7	
9	
8	
13	
9	
9	
12	
13	
12	
7	
10	
7	
9	
7	
7	
11	
13	
6	
8	
7	
9	
4	
9	
6	
5	
14	
11	
10	
6	
11	
8	
15	
14	
8	
11	
12	
8	
10	
9	
11	
11	
9	
10	
5	
8	
10	
8	
14	
9	
10	
13	
12	
13	
9	
12	
5	
8	
9	
10	
8	
12	
8	
11	
7	
15	
10	
6	
8	
8	
10	
7	
9	
11	
10	
6	
8	
6	
8	
14	
11	
5	
6	
12	
7	
11	
9	
8	
13	
7	
10	
17	
11	
9	
6	
8	
9	
3	
9	
8	
13	
9	
12	
4	
10	
4	
10	
9	
10	
12	
10	
13	
5	
8	
12	
4	
11	
7	
3	
14	
6	
7	
9	
14	
8	
9	
6	
10	
10	
6	
9	
8	
12	
9	
8	
10	
5	
6	
10	
8	
9	
10	
7	
17	
2	
10	
10	
7	
11	
11	
15	
9	
19	
8	
7	
10	
5	
3	
7	
11	
8	
6	
7	
11	
10	
8	
11	
9	
8	
4	
10	
8	
11	
9	
8	
13	
8	
12	
5	
15	
6	
15	
14	
5	
8	
10	
9	
15	
3	
6	
9	
17	
11	
3	
8	
2	
18	
13	
6	
12	
9	
6	
9	
12	
10	
8	
3	
10	
6	
6	
14	
10	
9	
11	
9	
11	
7	
10	
7	
7	
5	
11	
10	
12	
9	
7	
9	
4	
8	
4	
8	
7	
14	
7	
3	
13	
9	
11	
3	
12	
7	
10	
6	
15	
8	
3	
7	
4	
9	
8	
4	
7	
7	
9	
7	
1	
13	
7	
11	
5	
12	
9	
12	
8	
7	
9	
7	
4	
5	
17	
7	
12	
6	
5	
18	
9	
10	
10	
8	
13	
9	
4	
10	
6	
7	
5	
5	
9	
5	
3	
10	
16	
12	
11	
9	
10	
8	
9	
9	
13	
7	
8	
4	
4	
8	
10	
13	
7	
3	
5	
8	
5	
11	
3	
2	
12	
10	
6	
8	
5	
11	
10	
11	
16	
11	
12	
7	
3	
13	
7	
9	
11	
7	
11	
9	
16	
8	
2	
12	
7	
10	
9	
4	
4	
10	
8	
12	
11	
8	
5	
7	
6	
10	
6	
12	
6	
7	
5	
6	
7	
5	
8	
4	
5	
8	
8	
9	
3	
6	
8	
10	
4	
6	
8	
8	
9	
7	
11	
8	
5	
4	
16	
4	
9	
9	
5	
9	
4	
11	
8	
8	
7	
8	
6	
11	
9	
10	
11	
9	
6	
7	
8	
9	
11	
4	
4	
4	
6	
8	
14	
5	
7	
9	
9	
11	
7	
4	
12	
7	
8	
14	
10	
12	
8	
5	
11	
11	
16	
6	
9	
12	
10	
5	
8	
8	
5	
10	
8	
8	
8	
8	
7	
4	
7	
10	
10	
9	
5	
9	
3	
6	
6	
6	
6	
6	
4	
6	
10	
7	
4	
10	
10	
7	
5	
8	
7	
8	
8	
7	
9	
8	
9	
6	
6	
11	
7	
10	
10	
9	
7	
10	
6	
7	
3	
8	
4	
8	
11	
10	
5	
8	
11	
13	
4	
4	
5	
10	
5	
4	
10	
8	
4	
9	
5	
6	
4	
8	
6	
6	
6	
10	
13	
10	
5	
9	
4	
10	
13	
5	
4	
10	
7	
3	
10	
7	
6	
11	
18	
8	
14	
10	
8	
2	
10	
8	
10	
11	
5	
8	
10	
5	
9	
10	
3	
10	
9	
9	
12	
5	
7	
5	
8	
3	
4	
8	
10	
2	
12	
6	
4	
9	
10	
5	
12	
6	
11	
6	
6	
7	
5	
4	
8	
9	
7	
10	
4	
3	
7	
10	
4	
9	
8	
8	
4	
7	
9	
9	
4	
6	
11	
8	
11	
4	
3	
6	
11	
3	
5	
13	
9	
7	
5	
9	
7	
9	
7	
8	
8	
7	
7	
11	
2	
11	
6	
14	
4	
10	
5	
7	
8	
6	
7	
8	
7	
5	
9	
9	
8	
8	
12	
12	
2	
7	
5	
7	
6	
8	
8	
15	
10	
7	
7	
15	
9	
14	
4	
8	
10	
6	
4	
7	
8	
5	
14	
4	
1	
9	
5	
5	
6	
5	
5	
8	
5	
8	
9	
7	
12	
6	
11	
14	
8	
7	
7	
3	
13	
8	
9	
9	
7	
11	
11	
1	
9	
11	
1	
5	
9	
4	
6	
9	
6	
11	
10	
7	
4	
8	
8	
9	
8	
6	
7	
7	
7	
2	
11	
9	
4	
9	
7	
8	
6	
4	
7	
10	
9	
8	
7	
8	
10	
7	
9	
11	
6	
9	
10	
7	
5	
8	
6	
7	
10	
12	
11	
3	
10	
10	
7	
11	
8	
7	
9	
8	
12	
5	
7	
5	
5	
7	
11	
3	
7	
8	
6	
7	
3	
9	
12	
5	
9	
3	
13	
5	
1	
8	
4	
8	
10	
5	
7	
8	
8	
6	
12	
10	
6	
6	
11	
5	
16	
6	
9	
6	
3	
4	
9	
8	
7	
14	
5	
8	
6	
4	
11	
4	
7	
5	
4	
7	
6	
5	
6	
9	
7	
7	
9	
8	
9	
5	
7	
5	
7	
8	
3	
2	
2	
13	
13	
4	
5	
8	
8	
8	
4	
4	
6	
7	
11	
2	
9	
5	
6	
8	
8	
5	
8	
5	
15	
5	
6	
7	
6	
4	
6	
10	
7	
1	
8	
12	
3	
7	
7	
2	
5	
5	
5	
11	
10	
4	
7	
9	
8	
6	
4	
5	
5	
12	
8	
8	
11	
7	
4	
8	
12	
5	
6	
6	
8	
3	
4	
11	
5	
4	
4	
8	
13	
7	
9	
4	
9	
5	
4	
6	
8	
6	
6	
1	
8	
6	
7	
7	
11	
9	
8	
10	
7	
4	
10	
6	
4	
4	
11	
6	
8	
8	
10	
8	
6	
5	
7	
5	
5	
8	
8	
4	
11	
9	
5	
7	
8	
5	
5	
5	
8	
7	
4	
6	
7	
6	
4	
9	
8	
8	
6	
7	
12	
11	
5	
7	
6	
12	
10	
9	
7	
4	
5	
6	
6	
6	
7	
10	
8	
5	
6	
6	
9	
3	
7	
7	
2	
4	
12	
2	
6	
5	
7	
8	
10	
8	
4	
3	
6	
10	
6	
7	
8	
5	
10	
3	
4	
5	
3	
4	
9	
9	
3	
7	
3	
5	
4	
7	
7	
6	
7	
10	
12	
8	
8	
6	
7	
8	
2	
7	
7	
5	
4	
6	
9	
3	
4	
1	
8	
10	
4	
6	
5	
6	
11	
5	
4	
8	
5	
6	
5	
11	
7	
12	
3	
8	
8	
2	
6	
7	
6	
6	
5	
5	
7	
11	
3	
5	
6	
5	
6	
8	
5	
5	
4	
2	
8	
2	
8	
5	
4	
7	
4	
5	
5	
7	
8	
1	
3	
7	
6	
5	
7	
6	
4	
5	
6	
6	
9	
9	
5	
10	
1	
5	
6	
6	
11	
4	
6	
9	
9	
6	
10	
6	
9	
8	
3	
5	
5	
4	
10	
8	
5	
8	
8	
5	
4	
5	
3	
9	
8	
3	
9	
5	
7	
10	
8	
12	
5	
8	
5	
2	
3	
8	
7	
6	
8	
7	
6	
3	
4	
6	
3	
4	
10	
3	
5	
6	
10	
11	
5	
4	
8	
6	
4	
5	
8	
6	
5	
8	
4	
6	
4	
7	
6	
4	
9	
5	
7	
9	
7	
6	
8	
3	
8	
5	
8	
5	
4	
7	
4	
8	
6	
8	
6	
4	
4	
9	
8	
5	
5	
5	
7	
10	
6	
6	
6	
8	
8	
6	
7	
9	
7	
1	
9	
8	
5	
6	
7	
10	
1	
7	
4	
7	
6	
6	
7	
1	
6	
6	
2	
7	
8	
4	
3	
4	
4	
12	
5	
1	
7	
4	
6	
12	
5	
6	
6	
9	
6	
6	
4	
5	
4	
5	
4	
8	
3	
10	
8	
7	
4	
7	
2	
10	
4	
11	
5	
3	
7	
3	
5	
5	
3	
6	
8	
4	
9	
10	
8	
10	
6	
5	
3	
8	
3	
8	
2	
8	
3	
4	
8	
4	
7	
10	
5	
4	
6	
7	
15	
9	
7	
12	
6	
6	
1	
7	
7	
8	
4	
5	
8	
1	
12	
4	
5	
10	
8	
9	
9	
4	
3	
2	
8	
6	
6	
6	
8	
5	
7	
9	
10	
4	
5	
3	
6	
7	
7	
6	
9	
2	
5	
6	
5	
6	
5	
4	
6	
2	
5	
11	
4	
9	
5	
4	
9	
3	
7	
6	
6	
8	
9	
6	
8	
4	
7	
3	
5	
9	
5	
5	
3	
6	
7	
6	
5	
3	
3	
9	
2	
2	
8	
9	
4	
6	
6	
9	
4	
5	
4	
3	
10	
7	
1	
6	
6	
7	
8	
4	
5	
4	
7	
3	
8	
5	
3	
6	
6	
10	
2	
6	
4	
3	
7	
9	
5	
10	
9	
6	
7	
6	
6	
5	
6	
5	
3	
2	
7	
6	
3	
3	
8	
5	
6	
6	
6	
3	
4	
5	
11	
4	
5	
4	
6	
5	
8	
2	
5	
5	
5	
2	
7	
4	
4	
4	
6	
3	
10	
6	
3	
6	
6	
6	
9	
7	
3	
6	
4	
7	
7	
3	
6	
7	
7	
6	
6	
3	
5	
1	
6	
5	
5	
1	
5	
7	
4	
3	
9	
8	
8	
5	
6	
5	
1	
4	
4	
3	
3	
7	
6	
3	
7	
8	
6	
9	
8	
5	
10	
5	
4	
3	
2	
2	
7	
8	
8	
12	
6	
8	
5	
7	
6	
5	
12	
6	
6	
5	
7	
6	
6	
5	
7	
7	
6	
8	
4	
2	
6	
5	
4	
2	
7	
9	
7	
10	
8	
7	
4	
7	
7	
3	
7	
3	
8	
8	
6	
11	
4	
8	
9	
3	
8	
4	
6	
4	
3	
3	
5	
4	
9	
6	
6	
3	
5	
7	
7	
3	
4	
5	
9	
9	
3	
4	
4	
7	
6	
9	
6	
8	
4	
7	
3	
9	
3	
5	
8	
4	
5	
6	
3	
4	
8	
2	
5	
7	
6	
7	
7	
6	
5	
7	
4	
5	
7	
6	
7	
6	
3	
9	
2	
6	
2	
4	
6	
7	
6	
7	
9	
5	
5	
5	
5	
7	
13	
6	
9	
6	
11	
4	
1	
8	
7	
5	
5	
2	
6	
7	
5	
7	
5	
2	
7	
7	
4	
9	
5	
5	
4	
2	
7	
6	
8	
3	
7	
5	
7	
10	
3	
4	
7	
6	
8	
7	
4	
4	
2	
4	
8	
5	
3	
6	
5	
5	
4	
4	
4	
5	
10	
6	
10	
2	
7	
4	
3	
3	
7	
5	
2	
4	
4	
1	
8	
4	
8	
7	
3	
5	
4	
7	
4	
5	
3	
2	
5	
7	
4	
3	
2	
2	
5	
4	
3	
10	
5	
5	
3	
4	
3	
6	
3	
3	
4	
4	
6	
4	
4	
10	
3	
5	
7	
7	
6	
4	
5	
6	
2	
6	
6	
1	
2	
5	
5	
6	
5	
7	
6	
7	
6	
7	
6	
6	
3	
5	
5	
4	
6	
9	
2	
8	
4	
3	
4	
9	
6	
5	
8	
3	
7	
6	
6	
1	
5	
6	
5	
4	
9	
8	
6	
6	
2	
4	
3	
2	
6	
7	
7	
2	
5	
5	
5	
5	
5	
3	
4	
9	
5	
7	
5	
3	
4	
6	
6	
4	
6	
5	
5	
7	
7	
3	
7	
7	
2	
6	
4	
5	
6	
3	
4	
4	
2	
5	
5	
5	
5	
2	
2	
1	
1	
10	
2	
6	
6	
6	
3	
9	
8	
9	
6	
8	
4	
4	
6	
3	
6	
6	
6	
6	
4	
9	
3	
4	
4	
5	
4	
3	
3	
4	
8	
3	
7	
3	
14	
3	
5	
4	
2	
5	
7	
1	
6	
6	
7	
3	
2	
6	
3	
5	
4	
4	
3	
6	
2	
4	
3	
7	
8	
4	
6	
9	
7	
7	
3	
1	
5	
5	
1	
6	
8	
6	
1	
6	
9	
6	
5	
7	
4	
5	
6	
1	
6	
4	
2	
7	
2	
3	
5	
7	
6	
5	
3	
6	
6	
6	
6	
6	
4	
4	
1	
2	
8	
9	
3	
5	
3	
4	
10	
8	
5	
6	
6	
5	
6	
4	
10	
7	
2	
5	
6	
2	
4	
3	
4	
1	
4	
5	
4	
1	
8	
5	
5	
1	
4	
0	
8	
6	
4	
5	
4	
7	
4	
5	
5	
7	
4	
9	
7	
2	
4	
7	
7	
3	
4	
2	
5	
6	
6	
7	
4	
4	
4	
9	
5	
6	
12	
2	
3	
8	
2	
6	
0	
3	
5	
2	
6	
4	
5	
5	
4	
5	
4	
4	
2	
1	
6	
5	
1	
3	
8	
3	
4	
4	
4	
9	
9	
3	
6	
1	
4	
5	
4	
4	
6	
2	
7	
7	
5	
3	
6	
5	
5	
7	
5	
4	
7	
2	
3	
4	
1	
6	
2	
6	
1	
10	
8	
9	
9	
6	
3	
5	
3	
6	
5	
2	
9	
5	
5	
5	
4	
6	
5	
5	
4	
7	
4	
6	
10	
4	
2	
3	
7	
4	
5	
7	
1	
3	
3	
6	
5	
2	
7	
7	
1	
4	
5	
6	
3	
7	
14	
7	
2	
8	
5	
5	
6	
2	
7	
10	
4	
6	
6	
4	
4	
3	
5	
4	
4	
6	
4	
4	
3	
4	
6	
1	
8	
9	
5	
4	
3	
5	
2	
7	
4	
9	
4	
5	
5	
5	
2	
7	
5	
7	
3	
4	
3	
6	
5	
1	
7	
2	
4	
6	
6	
4	
4	
6	
11	
11	
6	
4	
5	
4	
5	
6	
6	
8	
6	
4	
7	
4	
3	
5	
10	
3	
6	
5	
6	
8	
3	
2	
3	
2	
4	
5	
6	
4	
2	
5	
3	
2	
4	
3	
7	
3	
3	
2	
9	
4	
5	
2	
3	
1	
7	
6	
4	
6	
4	
5	
9	
4	
3	
4	
2	
7	
5	
4	
2	
4	
1	
3	
2	
5	
7	
5	
4	
6	
4	
3	
4	
6	
4	
2	
3	
6	
4	
7	
4	
4	
5	
5	
8	
1	
8	
4	
3	
5	
2	
4	
4	
6	
4	
1	
4	
2	
4	
5	
6	
1	
5	
3	
4	
3	
2	
3	
4	
1	
4	
4	
4	
4	
4	
0	
3	
4	
3	
3	
6	
4	
3	
2	
4	
3	
1	
9	
6	
5	
8	
3	
0	
5	
8	
2	
7	
6	
3	
5	
5	
1	
3	
2	
5	
3	
7	
5	
1	
1	
2	
7	
6	
3	
7	
10	
7	
4	
5	
5	
10	
4	
5	
5	
2	
4	
4	
3	
2	
2	
4	
4	
6	
3	
2	
3	
7	
3	
6	
4	
4	
5	
5	
6	
5	
3	
2	
4	
4	
1	
2	
4	
6	
2	
5	
7	
3	
2	
7	
3	
1	
1	
4	
5	
3	
4	
2	
5	
2	
6	
1	
5	
0	
7	
3	
5	
1	
3	
5	
6	
5	
3	
6	
6	
7	
6	
6	
2	
2	
2	
2	
2	
8	
1	
3	
3	
4	
5	
6	
5	
5	
5	
5	
5	
1	
5	
8	
5	
5	
0	
6	
5	
3	
4	
7	
3	
0	
7	
3	
3	
5	
2	
3	
6	
4	
8	
9	
2	
2	
4	
5	
3	
6	
1	
2	
2	
3	
2	
2	
5	
3	
4	
5	
2	
2	
5	
2	
5	
6	
7	
2	
2	
8	
6	
6	
9	
2	
2	
3	
1	
5	
4	
2	
3	
4	
3	
5	
5	
5	
4	
1	
7	
6	
3	
5	
5	
2	
3	
5	
5	
4	
5	
6	
3	
4	
2	
3	
3	
2	
5	
5	
4	
3	
2	
2	
4	
1	
6	
6	
5	
3	
10	
3	
6	
0	
3	
5	
2	
1	
6	
4	
5	
6	
4	
5	
2	
2	
4	
3	
6	
7	
2	
0	
3	
2	
4	
5	
5	
2	
6	
3	
3	
4	
8	
5	
3	
5	
4	
3	
8	
5	
9	
5	
6	
4	
2	
1	
2	
3	
3	
5	
3	
3	
1	
8	
4	
7	
6	
3	
2	
8	
6	
2	
2	
4	
3	
4	
6	
4	
10	
7	
2	
2	
2	
4	
0	
8	
4	
6	
5	
3	
4	
2	
2	
5	
5	
4	
2	
5	
6	
3	
4	
7	
9	
5	
3	
3	
3	
4	
6	
3	
1	
5	
6	
4	
4	
5	
5	
4	
5	
6	
3	
2	
1	
5	
5	
6	
3	
4	
2	
2	
1	
4	
5	
5	
2	
5	
4	
4	
5	
4	
3	
5	
8	
3	
2	
9	
5	
1	
3	
5	
4	
3	
4	
4	
3	
4	
3	
2	
4	
5	
5	
6	
3	
2	
3	
4	
9	
3	
6	
1	
3	
5	
3	
5	
3	
2	
4	
4	
1	
2	
3	
3	
4	
7	
6	
5	
1	
9	
7	
4	
6	
2	
4	
2	
2	
2	
4	
3	
4	
2	
4	
2	
7	
3	
11	
3	
2	
3	
4	
7	
3	
3	
4	
2	
1	
1	
6	
2	
5	
7	
1	
2	
6	
2	
3	
5	
1	
8	
6	
5	
4	
5	
3	
2	
3	
1	
4	
5	
4	
4	
3	
8	
4	
5	
3	
4	
5	
5	
6	
1	
5	
6	
5	
3	
6	
5	
7	
4	
7	
3	
5	
3	
2	
3	
4	
4	
6	
3	
4	
3	
6	
2	
0	
6	
5	
3	
2	
8	
7	
1	
4	
5	
8	
4	
4	
2	
2	
4	
7	
5	
6	
3	
2	
5	
3	
2	
3	
4	
3	
2	
5	
3	
0	
6	
1	
5	
4	
4	
7	
2	
2	
4	
4	
1	
2	
3	
1	
3	
2	
4	
7	
4	
0	
6	
3	
5	
3	
0	
3	
2	
4	
4	
3	
5	
1	
5	
1	
4	
2	
5	
4	
3	
3	
2	
4	
3	
2	
4	
0	
2	
3	
5	
5	
0	
1	
1	
5	
5	
1	
3	
5	
3	
6	
3	
3	
8	
1	
1	
3	
5	
2	
4	
2	
4	
5	
2	
4	
4	
3	
4	
3	
3	
4	
6	
3	
2	
2	
4	
1	
3	
0	
8	
7	
4	
4	
1	
3	
3	
2	
0	
4	
4	
3	
4	
4	
4	
6	
3	
3	
2	
2	
5	
2	
2	
3	
3	
1	
5	
1	
3	
4	
4	
5	
3	
3	
4	
0	
1	
3	
7	
2	
3	
8	
0	
7	
2	
2	
2	
2	
3	
3	
2	
2	
5	
4	
0	
4	
3	
1	
4	
2	
4	
2	
1	
5	
4	
4	
3	
3	
3	
2	
7	
2	
5	
3	
2	
6	
3	
2	
3	
6	
4	
3	
2	
3	
5	
2	
7	
3	
0	
2	
2	
6	
3	
2	
7	
3	
9	
2	
0	
2	
4	
3	
2	
2	
5	
2	
1	
1	
5	
7	
2	
4	
1	
3	
3	
2	
2	
3	
6	
1	
3	
3	
2	
4	
4	
4	
3	
3	
8	
5	
6	
3	
6	
4	
2	
2	
3	
6	
1	
1	
1	
5	
5	
4	
3	
7	
8	
1	
0	
2	
3	
2	
3	
5	
3	
6	
7	
3	
0	
5	
2	
8	
5	
1	
1	
4	
6	
7	
5	
6	
5	
3	
6	
3	
5	
1	
3	
4	
5	
2	
2	
4	
5	
4	
3	
5	
5	
3	
4	
3	
4	
1	
6	
1	
4	
3	
3	
0	
2	
2	
3	
5	
2	
7	
3	
1	
3	
4	
1	
7	
3	
3	
1	
1	
4	
0	
2	
4	
3	
1	
1	
5	
4	
2	
3	
3	
4	
1	
2	
2	
2	
2	
4	
3	
3	
3	
2	
4	
6	
6	
1	
5	
3	
3	
6	
2	
4	
3	
2	
6	
3	
1	
1	
5	
6	
0	
3	
6	
4	
5	
3	
1	
5	
4	
4	
1	
1	
2	
1	
2	
4	
4	
6	
3	
0	
6	
3	
1	
3	
2	
2	
6	
2	
2	
3	
4	
4	
4	
1	
7	
5	
2	
0	
3	
7	
2	
3	
4	
4	
2	
2	
4	
5	
0	
2	
5	
5	
3	
5	
4	
6	
4	
2	
4	
2	
4	
3	
3	
4	
5	
7	
3	
5	
4	
2	
7	
4	
5	
4	
3	
4	
4	
5	
4	
4	
2	
3	
3	
4	
1	
4	
4	
3	
3	
6	
5	
4	
4	
3	
3	
5	
1	
4	
5	
1	
5	
5	
3	
4	
4	
4	
7	
3	
2	
2	
3	
4	
3	
4	
5	
3	
1	
2	
5	
1	
5	
3	
4	
1	
3	
3	
4	
5	
4	
4	
5	
3	
5	
4	
7	
3	
2	
0	
4	
4	
3	
3	
4	
5	
5	
1	
1	
4	
1	
4	
2	
3	
4	
3	
9	
8	
3	
2	
6	
4	
1	
4	
1	
3	
1	
6	
6	
2	
3	
0	
4	
6	
4	
4	
2	
6	
3	
7	
5	
5	
6	
4	
2	
2	
1	
1	
5	
3	
1	
5	
1	
1	
1	
3	
4	
3	
1	
2	
3	
0	
4	
1	
2	
4	
3	
1	
9	
0	
6	
3	
2	
4	
1	
1	
2	
3	
5	
2	
5	
2	
0	
7	
3	
5	
4	
4	
6	
1	
2	
4	
2	
4	
4	
1	
3	
0	
5	
8	
4	
2	
3	
2	
4	
7	
5	
0	
2	
5	
4	
2	
1	
7	
3	
4	
5	
1	
1	
2	
6	
4	
2	
1	
2	
4	
3	
6	
2	
4	
2	
4	
6	
5	
2	
2	
5	
1	
1	
5	
4	
6	
4	
1	
2	
2	
3	
7	
1	
4	
5	
4	
3	
3	
4	
5	
4	
1	
2	
5	
1	
1	
1	
3	
1	
2	
0	
5	
1	
3	
3	
6	
3	
1	
1	
0	
2	
7	
4	
4	
2	
6	
3	
1	
7	
1	
7	
5	
1	
3	
7	
3	
1	
3	
4	
3	
2	
3	
3	
8	
2	
2	
4	
4	
4	
3	
2	
5	
1	
5	
4	
8	
2	
7	
0	
5	
2	
3	
4	
4	
2	
4	
4	
3	
4	
4	
4	
4	
5	
2	
3	
3	
1	
0	
2	
2	
0	
4	
5	
5	
6	
5	
4	
1	
3	
3	
3	
3	
5	
2	
6	
3	
3	
4	
1	
5	
2	
6	
6	
3	
1	
2	
3	
1	
3	
2	
1	
4	
3	
5	
4	
2	
5	
3	
0	
3	
3	
4	
5	
0	
1	
2	
2	
5	
5	
1	
5	
4	
4	
5	
2	
1	
3	
6	
6	
6	
3	
5	
2	
3	
6	
2	
3	
2	
2	
5	
4	
3	
6	
1	
3	
5	
4	
5	
3	
6	
1	
2	
2	
5	
1	
6	
1	
5	
1	
5	
4	
5	
1	
4	
2	
5	
2	
4	
4	
1	
3	
3	
1	
4	
5	
4	
0	
4	
2	
6	
5	
5	
3	
2	
3	
3	
3	
3	
4	
3	
3	
3	
3	
3	
4	
5	
1	
1	
2	
1	
3	
3	
6	
3	
0	
1	
2	
6	
4	
2	
3	
6	
5	
2	
3	
3	
6	
5	
1	
1	
3	
5	
2	
0	
3	
3	
7	
2	
2	
3	
3	
1	
5	
2	
2	
4	
2	
4	
5	
4	
3	
1	
6	
8	
5	
3	
4	
3	
6	
2	
2	
2	
6	
4	
1	
2	
2	
1	
5	
4	
2	
1	
0	
2	
2	
3	
3	
3	
7	
3	
1	
1	
2	
2	
1	
5	
2	
2	
3	
2	
3	
4	
5	
6	
0	
2	
1	
3	
3	
1	
4	
4	
6	
1	
3	
3	
5	
3	
3	
3	
2	
3	
3	
6	
3	
2	
5	
3	
3	
5	
5	
3	
2	
4	
8	
5	
3	
2	
3	
4	
3	
1	
2	
4	
6	
2	
3	
1	
0	
1	
3	
1	
2	
3	
5	
5	
2	
4	
2	
3	
0	
2	
1	
3	
1	
2	
3	
3	
0	
4	
3	
3	
4	
5	
6	
1	
5	
1	
3	
2	
2	
6	
2	
3	
2	
5	
3	
1	
1	
5	
4	
2	
4	
2	
4	
3	
2	
3	
1	
1	
1	
3	
3	
2	
2	
2	
2	
4	
1	
2	
1	
5	
2	
1	
4	
0	
5	
2	
2	
3	
2	
1	
6	
3	
3	
0	
2	
3	
1	
4	
3	
4	
4	
3	
2	
2	
3	
5	
4	
1	
4	
2	
4	
5	
0	
4	
2	
4	
0	
6	
3	
5	
2	
5	
3	
2	
4	
3	
4	
4	
2	
2	
3	
3	
1	
5	
4	
2	
1	
5	
3	
4	
1	
3	
1	
4	
3	
5	
3	
4	
2	
3	
7	
5	
3	
2	
4	
0	
3	
5	
4	
5	
3	
1	
5	
2	
6	
2	
3	
5	
2	
1	
3	
3	
3	
1	
2	
3	
4	
7	
2	
3	
4	
3	
1	
4	
3	
6	
4	
1	
2	
2	
2	
3	
4	
4	
1	
3	
3	
2	
2	
1	
7	
1	
1	
2	
2	
6	
1	
2	
3	
3	
2	
4	
2	
6	
4	
2	
5	
0	
2	
2	
4	
2	
7	
2	
2	
3	
3	
2	
2	
1	
3	
6	
5	
0	
8	
3	
3	
3	
1	
5	
3	
3	
1	
6	
0	
4	
3	
4	
5	
2	
4	
2	
2	
3	
3	
3	
0	
2	
4	
1	
3	
5	
1	
3	
2	
2	
2	
1	
0	
0	
0	
5	
3	
4	
3	
5	
0	
1	
4	
2	
3	
1	
4	
2	
2	
4	
1	
2	
6	
4	
6	
1	
4	
2	
4	
3	
3	
3	
4	
1	
3	
3	
3	
1	
3	
2	
1	
3	
1	
2	
6	
1	
1	
2	
6	
3	
3	
5	
4	
4	
4	
1	
0	
2	
2	
2	
5	
0	
3	
6	
1	
4	
5	
4	
2	
1	
2	
4	
0	
2	
5	
3	
0	
1	
2	
2	
6	
5	
3	
1	
3	
2	
3	
4	
7	
1	
7	
4	
2	
5	
4	
2	
2	
2	
6	
5	
1	
4	
5	
1	
2	
3	
1	
3	
3	
7	
4	
3	
2	
3	
3	
4	
2	
0	
2	
0	
3	
3	
1	
4	
1	
0	
3	
3	
7	
2	
3	
3	
5	
2	
3	
2	
4	
2	
1	
0	
4	
2	
1	
5	
3	
1	
4	
1	
1	
1	
0	
4	
2	
2	
2	
2	
3	
3	
5	
3	
4	
5	
3	
1	
6	
2	
3	
0	
4	
2	
7	
1	
4	
2	
3	
4	
1	
1	
4	
1	
1	
4	
5	
1	
2	
6	
2	
0	
4	
7	
6	
0	
0	
4	
4	
6	
1	
1	
3	
2	
4	
4	
0	
0	
3	
4	
1	
2	
3	
4	
1	
0	
2	
2	
6	
2	
7	
2	
4	
2	
6	
3	
3	
6	
3	
0	
3	
2	
4	
1	
3	
4	
4	
0	
4	
2	
0	
1	
2	
1	
3	
1	
3	
4	
2	
0	
1	
2	
4	
5	
0	
3	
0	
3	
0	
1	
4	
1	
1	
4	
0	
3	
1	
5	
2	
3	
1	
5	
2	
4	
0	
4	
2	
4	
0	
1	
3	
4	
5	
4	
3	
1	
5	
0	
3	
1	
4	
2	
3	
3	
3	
3	
0	
3	
3	
2	
0	
1	
2	
5	
3	
3	
1	
4	
2	
3	
0	
3	
0	
5	
4	
2	
1	
0	
4	
5	
4	
0	
2	
5	
3	
4	
0	
1	
0	
3	
1	
2	
3	
1	
2	
5	
3	
4	
2	
0	
1	
4	
3	
1	
3	
0	
5	
3	
2	
4	
3	
3	
3	
1	
0	
3	
2	
0	
3	
3	
1	
3	
2	
2	
5	
2	
3	
2	
0	
2	
5	
4	
1	
4	
1	
2	
2	
1	
1	
1	
3	
3	
1	
3	
3	
2	
2	
2	
3	
4	
0	
2	
0	
6	
2	
2	
2	
4	
2	
1	
2	
2	
3	
3	
2	
2	
1	
1	
1	
8	
2	
3	
1	
2	
3	
1	
4	
3	
5	
7	
5	
1	
3	
6	
2	
4	
2	
2	
2	
4	
3	
1	
1	
1	
1	
3	
3	
1	
1	
2	
2	
4	
2	
2	
2	
1	
0	
3	
0	
3	
1	
0	
1	
2	
3	
1	
2	
3	
5	
3	
2	
2	
4	
1	
2	
3	
0	
7	
5	
2	
2	
2	
0	
3	
2	
1	
2	
4	
1	
3	
4	
3	
2	
0	
3	
2	
1	
1	
4	
4	
4	
1	
2	
4	
3	
3	
0	
0	
3	
2	
2	
2	
5	
3	
3	
1	
1	
4	
3	
1	
3	
0	
3	
0	
3	
1	
1	
6	
1	
5	
5	
2	
4	
1	
2	
2	
4	
1	
4	
6	
2	
3	
4	
3	
2	
2	
4	
0	
0	
8	
1	
1	
0	
3	
5	
3	
3	
2	
3	
1	
1	
2	
2	
2	
2	
6	
5	
2	
3	
4	
2	
5	
3	
3	
3	
2	
3	
4	
3	
2	
0	
4	
1	
2	
4	
2	
1	
1	
0	
3	
1	
3	
1	
3	
2	
2	
1	
4	
2	
4	
2	
3	
2	
3	
5	
1	
4	
2	
2	
3	
3	
2	
7	
3	
4	
2	
1	
3	
0	
3	
4	
2	
1	
4	
1	
2	
4	
2	
4	
1	
3	
0	
3	
4	
2	
1	
5	
1	
1	
2	
2	
1	
3	
3	
0	
1	
3	
2	
2	
2	
0	
4	
5	
1	
0	
2	
3	
2	
3	
2	
2	
2	
7	
2	
0	
3	
6	
0	
0	
1	
4	
3	
2	
0	
2	
2	
2	
0	
3	
2	
2	
3	
2	
4	
1	
0	
1	
1	
1	
1	
3	
3	
2	
3	
6	
1	
1	
3	
4	
4	
2	
2	
0	
6	
1	
1	
4	
2	
3	
3	
1	
4	
2	
3	
1	
2	
4	
2	
5	
3	
1	
1	
1	
0	
3	
2	
1	
3	
2	
0	
3	
2	
3	
3	
4	
4	
3	
2	
5	
2	
5	
1	
1	
4	
2	
0	
2	
3	
2	
2	
4	
2	
3	
1	
1	
3	
1	
1	
2	
2	
1	
1	
4	
7	
2	
2	
2	
2	
3	
1	
1	
2	
5	
3	
2	
1	
1	
1	
3	
2	
3	
5	
1	
3	
3	
0	
4	
3	
1	
2	
4	
2	
6	
3	
1	
1	
4	
2	
0	
1	
4	
2	
5	
3	
1	
0	
2	
0	
2	
6	
3	
2	
5	
1	
3	
2	
5	
3	
1	
1	
2	
0	
2	
1	
3	
3	
1	
2	
2	
2	
1	
4	
3	
0	
3	
1	
0	
2	
3	
2	
3	
2	
4	
0	
3	
3	
2	
2	
2	
0	
1	
1	
4	
2	
1	
4	
4	
2	
1	
2	
2	
1	
2	
3	
0	
3	
6	
5	
4	
0	
2	
6	
3	
3	
1	
5	
5	
4	
0	
3	
2	
1	
0	
3	
3	
1	
3	
3	
1	
1	
4	
2	
4	
3	
3	
2	
2	
2	
1	
3	
7	
5	
3	
2	
2	
0	
2	
3	
2	
9	
6	
4	
2	
2	
3	
5	
1	
2	
1	
2	
3	
3	
0	
1	
1	
1	
5	
4	
1	
0	
5	
3	
0	
2	
1	
2	
2	
0	
1	
3	
2	
1	
2	
1	
2	
1	
1	
2	
1	
1	
4	
1	
3	
4	
3	
2	
4	
3	
2	
1	
2	
7	
3	
0	
3	
4	
5	
3	
2	
1	
0	
2	
4	
4	
2	
6	
2	
2	
4	
1	
2	
1	
0	
1	
1	
5	
1	
1	
1	
0	
3	
2	
4	
3	
1	
2	
1	
3	
2	
2	
1	
3	
1	
0	
3	
1	
2	
4	
1	
5	
1	
4	
6	
2	
2	
3	
3	
