#PicoHarp 300  Histogram Data			04/21/2022 03:57:29 PM
#channels per curve
31250
#display curve no.
0	
#memory block no.
0	
#ns/channel
0.0320	
#counts
0	
1	
0	
1	
0	
0	
0	
0	
2	
1	
1	
0	
0	
0	
1	
1	
0	
0	
1	
0	
1	
0	
0	
0	
0	
1	
1	
0	
0	
0	
0	
2	
0	
1	
0	
1	
0	
0	
0	
1	
1	
0	
0	
0	
0	
1	
2	
0	
0	
0	
0	
0	
0	
1	
0	
0	
0	
0	
0	
0	
0	
0	
0	
1	
0	
0	
0	
0	
0	
0	
0	
0	
0	
0	
0	
0	
2	
0	
0	
0	
0	
0	
1	
0	
1	
0	
0	
1	
0	
0	
0	
0	
0	
0	
0	
0	
1	
0	
1	
1	
1	
2	
1	
1	
1	
2	
0	
0	
0	
0	
2	
0	
0	
0	
1	
1	
0	
0	
0	
2	
0	
0	
0	
2	
0	
0	
0	
1	
0	
0	
0	
0	
0	
0	
0	
0	
0	
0	
1	
0	
0	
0	
0	
0	
0	
1	
1	
0	
1	
1	
0	
0	
0	
0	
0	
0	
0	
0	
0	
0	
0	
0	
0	
0	
0	
0	
0	
1	
0	
0	
0	
0	
0	
0	
0	
1	
0	
1	
0	
1	
2	
0	
1	
0	
0	
0	
1	
0	
0	
0	
1	
0	
1	
1	
0	
0	
1	
1	
0	
0	
0	
1	
0	
1	
0	
1	
0	
1	
0	
0	
1	
0	
0	
1	
0	
0	
0	
0	
1	
0	
0	
0	
1	
0	
0	
2	
0	
2	
0	
0	
0	
0	
0	
0	
2	
1	
0	
0	
0	
0	
0	
1	
0	
0	
1	
0	
2	
1	
1	
0	
0	
0	
0	
0	
0	
1	
0	
0	
0	
0	
0	
0	
1	
0	
0	
0	
0	
0	
1	
0	
0	
0	
2	
0	
0	
0	
0	
1	
1	
0	
0	
0	
0	
0	
1	
1	
0	
0	
0	
0	
1	
0	
0	
1	
0	
0	
1	
1	
0	
0	
1	
0	
0	
0	
0	
0	
0	
0	
1	
0	
0	
1	
1	
2	
0	
0	
0	
0	
0	
0	
0	
0	
0	
0	
0	
0	
0	
0	
0	
0	
0	
0	
0	
0	
0	
0	
0	
0	
0	
1	
0	
0	
2	
0	
0	
1	
1	
0	
0	
0	
0	
1	
0	
0	
0	
0	
0	
0	
1	
0	
0	
1	
1	
0	
0	
0	
1	
0	
1	
0	
0	
0	
1	
0	
1	
0	
1	
1	
0	
0	
0	
1	
0	
0	
0	
0	
0	
2	
1	
0	
0	
0	
0	
0	
0	
1	
0	
0	
1	
0	
0	
0	
1	
0	
0	
0	
0	
0	
0	
0	
0	
0	
0	
0	
0	
0	
0	
0	
0	
0	
1	
0	
1	
0	
0	
0	
0	
0	
0	
2	
0	
0	
0	
0	
0	
0	
1	
0	
1	
0	
0	
1	
0	
0	
1	
2	
0	
0	
0	
0	
1	
0	
2	
0	
1	
0	
0	
0	
0	
0	
1	
0	
0	
0	
0	
1	
0	
0	
0	
1	
0	
0	
0	
0	
0	
0	
0	
0	
1	
0	
0	
0	
0	
0	
0	
0	
1	
1	
2	
1	
0	
0	
0	
1	
2	
1	
0	
0	
3	
1	
0	
0	
0	
1	
0	
0	
1	
0	
0	
1	
0	
0	
0	
0	
1	
0	
0	
0	
0	
1	
0	
1	
0	
0	
2	
0	
0	
0	
0	
0	
0	
0	
0	
0	
1	
2	
0	
0	
1	
0	
0	
0	
0	
2	
1	
0	
0	
0	
2	
0	
1	
0	
0	
1	
1	
0	
0	
0	
0	
0	
0	
0	
0	
0	
1	
1	
0	
0	
1	
0	
0	
0	
1	
1	
0	
0	
0	
0	
0	
0	
0	
0	
2	
1	
0	
0	
0	
0	
1	
0	
1	
0	
1	
0	
1	
0	
0	
0	
0	
2	
0	
1	
0	
0	
0	
0	
0	
1	
0	
0	
0	
2	
0	
1	
1	
1	
0	
0	
0	
0	
1	
0	
0	
0	
1	
0	
0	
0	
0	
0	
0	
0	
1	
1	
0	
1	
0	
2	
1	
0	
2	
0	
2	
0	
0	
0	
0	
0	
0	
0	
0	
0	
0	
0	
0	
0	
1	
0	
3	
0	
0	
1	
1	
0	
1	
0	
0	
0	
0	
0	
0	
1	
0	
0	
0	
0	
0	
0	
0	
0	
1	
0	
0	
0	
0	
0	
0	
0	
2	
1	
0	
0	
1	
0	
1	
0	
0	
0	
0	
1	
0	
0	
0	
0	
1	
0	
0	
0	
1	
0	
0	
0	
0	
1	
0	
0	
1	
1	
1	
1	
0	
0	
0	
0	
1	
0	
0	
1	
0	
2	
0	
0	
0	
2	
0	
2	
0	
1	
0	
1	
1	
0	
0	
0	
0	
1	
2	
0	
0	
0	
1	
0	
0	
0	
0	
1	
0	
0	
1	
1	
0	
1	
0	
0	
0	
0	
0	
0	
0	
0	
0	
0	
0	
0	
0	
1	
0	
1	
0	
0	
1	
0	
0	
0	
0	
0	
1	
0	
1	
1	
0	
0	
0	
0	
1	
0	
0	
0	
0	
0	
0	
0	
0	
0	
2	
2	
1	
0	
2	
0	
1	
1	
1	
0	
0	
1	
0	
0	
0	
0	
0	
3	
0	
0	
0	
0	
1	
0	
1	
0	
0	
1	
0	
0	
1	
0	
0	
0	
1	
1	
2	
1	
0	
0	
0	
0	
0	
0	
0	
0	
0	
1	
0	
0	
0	
1	
0	
1	
0	
0	
0	
0	
0	
0	
0	
1	
0	
1	
0	
1	
0	
0	
1	
0	
0	
0	
0	
0	
1	
0	
0	
0	
0	
1	
0	
0	
0	
0	
0	
1	
1	
0	
0	
0	
1	
1	
0	
0	
0	
0	
1	
2	
1	
1	
3	
0	
0	
0	
0	
0	
0	
1	
0	
1	
0	
0	
0	
0	
0	
0	
0	
0	
0	
0	
0	
0	
0	
0	
0	
0	
0	
1	
0	
0	
0	
0	
1	
0	
0	
1	
0	
1	
1	
0	
0	
0	
0	
0	
1	
0	
0	
0	
0	
0	
0	
0	
0	
1	
1	
0	
0	
2	
1	
1	
0	
1	
0	
0	
1	
0	
5	
1	
0	
2	
4	
1	
5	
4	
3	
6	
7	
8	
6	
5	
5	
11	
7	
7	
14	
14	
18	
17	
16	
23	
29	
22	
35	
34	
33	
50	
43	
55	
46	
49	
53	
53	
71	
57	
66	
52	
60	
55	
72	
74	
72	
68	
65	
62	
64	
79	
73	
61	
68	
62	
65	
69	
69	
76	
73	
65	
77	
60	
75	
86	
58	
71	
70	
71	
75	
78	
53	
84	
67	
69	
65	
80	
72	
70	
67	
72	
66	
81	
83	
69	
78	
72	
78	
64	
57	
70	
62	
61	
85	
100	
87	
67	
69	
73	
58	
73	
92	
70	
78	
80	
94	
60	
73	
79	
73	
75	
72	
57	
62	
71	
54	
69	
62	
63	
53	
67	
75	
81	
73	
69	
78	
55	
87	
57	
68	
65	
60	
61	
65	
67	
82	
55	
64	
71	
64	
65	
61	
64	
81	
68	
62	
66	
81	
69	
55	
67	
79	
75	
73	
61	
60	
66	
84	
64	
57	
61	
62	
54	
64	
63	
77	
73	
62	
59	
65	
72	
68	
64	
76	
61	
68	
70	
60	
56	
64	
80	
75	
59	
55	
63	
72	
67	
67	
51	
69	
53	
60	
62	
63	
73	
71	
66	
59	
59	
58	
60	
52	
80	
59	
57	
78	
69	
58	
59	
70	
52	
87	
76	
70	
71	
59	
62	
73	
51	
55	
71	
57	
61	
56	
63	
77	
60	
52	
71	
69	
59	
60	
54	
65	
58	
52	
67	
56	
60	
61	
58	
63	
63	
53	
72	
47	
59	
62	
59	
59	
62	
57	
60	
70	
65	
61	
63	
71	
74	
61	
54	
62	
58	
68	
63	
54	
66	
51	
65	
54	
60	
64	
49	
69	
56	
74	
59	
64	
60	
63	
63	
59	
66	
65	
68	
61	
63	
68	
63	
56	
48	
61	
69	
55	
60	
66	
62	
57	
57	
62	
69	
66	
66	
50	
55	
65	
55	
55	
57	
51	
68	
50	
55	
49	
53	
58	
58	
47	
62	
51	
61	
69	
51	
77	
51	
59	
60	
56	
49	
52	
42	
45	
58	
58	
59	
54	
55	
67	
57	
52	
58	
54	
69	
44	
52	
69	
62	
64	
54	
66	
43	
60	
59	
57	
59	
66	
49	
53	
56	
43	
65	
57	
60	
51	
54	
67	
49	
62	
54	
50	
44	
54	
60	
71	
49	
62	
45	
49	
64	
59	
61	
64	
61	
59	
42	
50	
51	
49	
47	
48	
51	
50	
63	
56	
61	
52	
63	
49	
60	
58	
50	
57	
72	
46	
58	
53	
49	
55	
44	
54	
58	
49	
56	
50	
53	
66	
66	
53	
61	
57	
60	
60	
61	
59	
37	
52	
46	
45	
64	
53	
57	
50	
51	
58	
52	
50	
56	
45	
48	
62	
50	
53	
39	
42	
45	
60	
61	
59	
62	
66	
61	
47	
56	
65	
57	
54	
62	
52	
52	
64	
58	
52	
50	
55	
48	
48	
47	
53	
53	
46	
48	
48	
43	
46	
65	
58	
67	
51	
50	
40	
51	
54	
37	
37	
40	
57	
39	
43	
45	
64	
56	
55	
50	
37	
48	
49	
45	
52	
50	
54	
45	
50	
64	
50	
61	
57	
56	
58	
54	
46	
43	
53	
53	
44	
42	
54	
50	
44	
38	
53	
57	
42	
45	
47	
43	
56	
53	
48	
49	
61	
50	
58	
51	
43	
48	
55	
48	
48	
43	
40	
37	
54	
46	
48	
51	
51	
46	
46	
30	
57	
55	
31	
48	
37	
43	
47	
53	
52	
47	
55	
43	
49	
58	
54	
51	
44	
50	
42	
46	
59	
45	
43	
47	
45	
48	
52	
54	
47	
57	
45	
65	
45	
42	
52	
52	
37	
40	
49	
47	
52	
44	
49	
42	
38	
54	
66	
45	
48	
44	
42	
36	
54	
52	
46	
40	
46	
56	
62	
57	
47	
53	
35	
54	
42	
49	
42	
44	
52	
35	
46	
55	
49	
45	
47	
41	
39	
51	
57	
55	
47	
32	
60	
45	
46	
43	
42	
44	
48	
43	
45	
47	
45	
43	
42	
53	
35	
42	
44	
50	
38	
49	
47	
33	
40	
42	
55	
35	
52	
46	
43	
52	
48	
42	
47	
48	
46	
45	
48	
50	
61	
40	
51	
53	
43	
42	
44	
42	
55	
41	
51	
44	
40	
37	
49	
44	
42	
53	
46	
37	
34	
47	
37	
43	
48	
54	
44	
34	
47	
52	
35	
51	
42	
43	
32	
44	
39	
34	
44	
37	
33	
46	
61	
64	
45	
32	
53	
34	
37	
49	
42	
42	
45	
33	
42	
41	
48	
48	
44	
44	
47	
32	
47	
37	
39	
56	
47	
39	
35	
40	
46	
61	
41	
43	
41	
43	
47	
52	
53	
49	
52	
47	
48	
45	
35	
37	
54	
49	
45	
51	
35	
43	
40	
44	
45	
41	
52	
44	
48	
23	
42	
44	
52	
47	
36	
44	
37	
42	
31	
38	
41	
46	
37	
44	
35	
38	
51	
45	
42	
40	
43	
45	
36	
40	
41	
32	
34	
35	
47	
43	
30	
33	
51	
35	
43	
58	
40	
56	
45	
60	
36	
39	
47	
44	
46	
43	
33	
51	
32	
46	
42	
43	
46	
33	
39	
47	
38	
40	
45	
37	
37	
35	
40	
46	
40	
45	
44	
44	
52	
42	
39	
50	
45	
48	
62	
39	
39	
43	
37	
48	
47	
35	
50	
51	
42	
38	
39	
39	
32	
41	
50	
31	
41	
37	
36	
45	
42	
44	
46	
46	
35	
33	
37	
52	
52	
54	
38	
31	
34	
54	
47	
33	
41	
38	
43	
46	
39	
39	
38	
39	
47	
51	
34	
49	
40	
44	
32	
30	
38	
49	
37	
38	
47	
25	
40	
44	
33	
35	
37	
41	
25	
33	
49	
36	
42	
48	
42	
39	
45	
33	
35	
25	
40	
29	
31	
40	
36	
45	
33	
41	
43	
35	
42	
40	
36	
41	
41	
45	
41	
41	
35	
36	
33	
47	
40	
42	
46	
39	
33	
41	
32	
30	
40	
36	
39	
32	
33	
35	
38	
32	
31	
35	
49	
41	
38	
35	
28	
38	
41	
43	
33	
35	
34	
28	
28	
40	
33	
43	
42	
35	
37	
44	
30	
40	
35	
49	
41	
46	
42	
55	
55	
42	
42	
37	
36	
42	
45	
33	
48	
49	
41	
35	
37	
36	
41	
42	
34	
42	
32	
44	
38	
33	
43	
41	
47	
43	
40	
41	
23	
24	
39	
39	
44	
30	
33	
32	
48	
32	
41	
45	
41	
34	
30	
33	
38	
36	
41	
34	
37	
34	
29	
37	
31	
42	
43	
36	
40	
30	
36	
39	
34	
46	
29	
38	
33	
27	
32	
36	
36	
43	
40	
37	
43	
39	
32	
41	
35	
41	
29	
26	
35	
35	
38	
42	
39	
28	
48	
29	
32	
35	
34	
33	
42	
39	
35	
36	
38	
41	
28	
47	
45	
39	
36	
39	
34	
30	
29	
33	
29	
29	
34	
36	
38	
34	
33	
38	
36	
25	
32	
39	
37	
35	
24	
26	
40	
36	
36	
36	
35	
40	
28	
35	
41	
33	
32	
35	
44	
36	
30	
34	
41	
31	
33	
36	
33	
33	
29	
29	
40	
41	
36	
38	
38	
15	
35	
27	
37	
38	
38	
38	
34	
25	
35	
40	
35	
30	
37	
32	
31	
22	
39	
30	
40	
41	
38	
27	
35	
30	
36	
36	
36	
39	
34	
25	
32	
35	
38	
38	
34	
41	
42	
33	
31	
35	
37	
28	
34	
41	
32	
30	
32	
39	
37	
27	
28	
34	
30	
30	
33	
39	
23	
41	
31	
33	
37	
32	
21	
30	
35	
36	
28	
29	
23	
49	
23	
23	
29	
35	
38	
38	
34	
29	
26	
37	
45	
35	
35	
33	
28	
35	
40	
42	
23	
28	
26	
35	
33	
35	
43	
46	
43	
25	
34	
40	
39	
33	
34	
38	
30	
31	
26	
44	
36	
28	
47	
32	
29	
32	
40	
30	
29	
34	
33	
37	
31	
22	
25	
33	
24	
20	
37	
32	
30	
33	
25	
33	
35	
25	
40	
23	
29	
39	
35	
26	
35	
30	
30	
38	
40	
44	
27	
22	
25	
40	
39	
29	
45	
28	
22	
31	
28	
37	
44	
33	
22	
32	
42	
34	
38	
25	
26	
43	
30	
29	
40	
41	
34	
37	
32	
22	
30	
25	
34	
39	
37	
26	
40	
26	
28	
36	
35	
31	
32	
29	
33	
32	
35	
18	
21	
30	
25	
22	
33	
32	
40	
32	
34	
37	
27	
29	
38	
21	
27	
40	
31	
31	
36	
33	
33	
27	
26	
40	
30	
32	
26	
32	
32	
31	
33	
38	
19	
35	
27	
31	
24	
21	
33	
39	
30	
33	
38	
30	
37	
21	
29	
30	
33	
25	
34	
33	
29	
23	
21	
35	
42	
42	
28	
28	
27	
26	
24	
35	
47	
30	
29	
42	
34	
30	
21	
33	
21	
25	
27	
25	
30	
33	
25	
41	
32	
30	
24	
37	
31	
30	
32	
26	
34	
37	
31	
24	
34	
26	
25	
26	
30	
36	
33	
16	
32	
34	
35	
29	
21	
39	
33	
34	
31	
30	
27	
31	
29	
33	
18	
25	
27	
34	
26	
34	
26	
31	
33	
30	
26	
31	
36	
31	
33	
21	
27	
25	
19	
40	
40	
27	
27	
35	
39	
34	
28	
31	
31	
25	
25	
35	
28	
34	
26	
31	
28	
29	
32	
31	
30	
25	
26	
30	
24	
36	
33	
31	
31	
29	
24	
39	
43	
31	
36	
15	
26	
31	
21	
22	
30	
32	
25	
31	
33	
29	
32	
36	
33	
36	
32	
24	
30	
22	
26	
25	
29	
25	
23	
29	
26	
40	
36	
25	
16	
30	
36	
20	
29	
31	
34	
31	
32	
20	
31	
26	
21	
29	
33	
29	
27	
34	
28	
26	
27	
22	
26	
29	
27	
27	
36	
28	
22	
32	
25	
33	
25	
28	
26	
38	
32	
21	
28	
26	
29	
25	
23	
20	
37	
27	
34	
30	
27	
30	
21	
31	
24	
21	
27	
29	
22	
31	
27	
30	
39	
24	
29	
29	
32	
26	
27	
20	
32	
30	
39	
15	
27	
32	
25	
24	
31	
30	
21	
33	
24	
34	
24	
38	
32	
27	
23	
31	
30	
24	
22	
36	
39	
29	
27	
21	
33	
25	
37	
25	
22	
28	
24	
22	
26	
19	
31	
25	
26	
20	
25	
25	
19	
32	
24	
13	
25	
28	
32	
32	
27	
37	
25	
20	
24	
21	
29	
41	
34	
24	
32	
30	
31	
31	
35	
24	
27	
25	
25	
26	
26	
31	
26	
32	
28	
39	
29	
23	
27	
34	
23	
42	
24	
26	
28	
33	
18	
23	
24	
25	
39	
29	
33	
24	
25	
33	
22	
29	
34	
28	
24	
22	
21	
32	
25	
34	
32	
30	
24	
30	
26	
31	
22	
24	
25	
29	
23	
22	
28	
34	
35	
30	
18	
25	
22	
22	
22	
35	
22	
25	
28	
24	
29	
28	
18	
29	
29	
17	
26	
26	
27	
22	
30	
31	
34	
18	
36	
33	
24	
22	
21	
30	
20	
30	
18	
34	
31	
26	
23	
27	
32	
28	
28	
25	
19	
24	
23	
26	
29	
35	
15	
32	
25	
32	
27	
29	
30	
24	
28	
31	
21	
18	
22	
30	
23	
17	
36	
29	
23	
16	
19	
21	
30	
32	
25	
25	
25	
32	
24	
24	
27	
29	
20	
28	
27	
35	
26	
26	
21	
25	
35	
28	
17	
24	
23	
43	
29	
32	
28	
35	
28	
22	
26	
36	
30	
32	
18	
12	
30	
28	
21	
23	
29	
32	
34	
19	
20	
32	
33	
21	
18	
32	
25	
22	
20	
35	
27	
24	
18	
30	
21	
37	
33	
24	
21	
26	
22	
29	
24	
26	
23	
19	
25	
28	
18	
29	
26	
17	
23	
30	
22	
19	
20	
20	
23	
16	
26	
18	
23	
24	
24	
24	
19	
21	
16	
29	
18	
19	
22	
13	
27	
39	
21	
26	
13	
25	
21	
18	
33	
20	
15	
26	
23	
25	
20	
27	
30	
24	
30	
26	
23	
22	
30	
26	
22	
28	
24	
23	
16	
31	
31	
22	
17	
27	
30	
28	
25	
33	
26	
24	
21	
31	
25	
18	
15	
22	
19	
29	
24	
24	
19	
29	
17	
24	
30	
22	
18	
18	
22	
20	
17	
23	
26	
21	
22	
22	
30	
29	
26	
19	
27	
25	
30	
17	
17	
27	
22	
21	
22	
18	
28	
30	
26	
22	
21	
18	
23	
22	
19	
17	
21	
27	
23	
25	
23	
25	
32	
19	
19	
22	
14	
15	
19	
22	
23	
17	
31	
20	
21	
20	
17	
21	
22	
15	
28	
22	
28	
16	
25	
23	
21	
20	
18	
21	
17	
21	
18	
18	
25	
22	
18	
26	
28	
23	
25	
28	
24	
21	
18	
21	
20	
23	
26	
21	
28	
19	
26	
25	
24	
24	
18	
18	
14	
19	
19	
27	
26	
25	
20	
25	
22	
25	
19	
32	
20	
24	
26	
27	
18	
18	
14	
21	
32	
24	
14	
20	
20	
30	
21	
19	
21	
29	
25	
19	
19	
23	
22	
23	
30	
15	
18	
22	
25	
15	
20	
24	
24	
27	
15	
17	
21	
18	
24	
25	
20	
33	
19	
18	
30	
21	
15	
26	
22	
24	
27	
22	
23	
19	
19	
19	
22	
13	
26	
25	
23	
21	
27	
19	
20	
22	
26	
30	
29	
23	
20	
27	
15	
16	
22	
22	
26	
16	
18	
25	
24	
18	
29	
18	
17	
27	
26	
23	
21	
28	
29	
22	
25	
25	
21	
19	
20	
32	
19	
17	
22	
21	
29	
24	
20	
18	
22	
22	
17	
29	
24	
26	
24	
22	
14	
22	
18	
16	
29	
19	
19	
22	
17	
18	
31	
18	
21	
21	
30	
19	
18	
19	
15	
26	
18	
16	
19	
27	
23	
28	
24	
26	
19	
16	
24	
23	
21	
27	
25	
27	
24	
19	
29	
23	
16	
11	
21	
21	
18	
17	
20	
15	
17	
28	
19	
19	
24	
19	
25	
18	
29	
19	
20	
15	
18	
21	
14	
19	
22	
19	
18	
23	
25	
19	
22	
25	
31	
22	
16	
25	
20	
20	
19	
21	
15	
24	
19	
10	
20	
19	
14	
17	
18	
20	
15	
15	
24	
17	
23	
15	
17	
8	
20	
35	
25	
24	
26	
16	
24	
25	
15	
19	
16	
19	
15	
25	
18	
15	
27	
22	
22	
23	
22	
20	
24	
23	
25	
16	
26	
18	
22	
24	
19	
11	
18	
18	
22	
15	
29	
24	
18	
17	
21	
21	
19	
28	
18	
19	
27	
15	
24	
31	
16	
22	
19	
18	
18	
18	
15	
21	
23	
13	
23	
28	
20	
21	
22	
13	
14	
16	
19	
22	
15	
21	
20	
19	
23	
23	
26	
14	
23	
29	
20	
23	
23	
21	
18	
17	
23	
27	
20	
15	
25	
17	
28	
20	
25	
21	
19	
17	
17	
17	
20	
20	
15	
10	
19	
30	
16	
20	
23	
17	
23	
26	
17	
22	
19	
15	
23	
18	
23	
17	
23	
15	
18	
23	
24	
15	
24	
20	
21	
19	
15	
16	
16	
27	
14	
21	
18	
14	
18	
13	
17	
20	
17	
25	
26	
18	
21	
21	
21	
28	
19	
20	
10	
16	
15	
20	
16	
20	
17	
15	
17	
18	
17	
22	
21	
17	
15	
21	
21	
17	
16	
12	
12	
21	
18	
13	
14	
12	
19	
15	
22	
16	
22	
32	
24	
27	
23	
18	
15	
22	
15	
28	
22	
18	
15	
17	
16	
11	
23	
19	
21	
18	
13	
23	
17	
25	
17	
14	
20	
19	
13	
15	
17	
21	
21	
15	
23	
12	
14	
14	
13	
13	
21	
22	
26	
17	
19	
14	
15	
19	
17	
18	
15	
12	
20	
12	
12	
25	
19	
16	
16	
13	
14	
19	
14	
24	
15	
16	
17	
16	
25	
18	
30	
12	
19	
15	
18	
24	
21	
29	
16	
15	
25	
18	
27	
12	
16	
16	
21	
10	
20	
18	
18	
17	
12	
20	
15	
14	
13	
19	
21	
21	
19	
16	
21	
16	
16	
24	
18	
19	
21	
16	
12	
17	
20	
23	
17	
21	
14	
15	
13	
14	
18	
12	
12	
20	
14	
13	
17	
15	
18	
25	
16	
28	
16	
13	
23	
16	
18	
15	
24	
16	
8	
13	
16	
16	
24	
22	
17	
21	
21	
20	
26	
13	
16	
12	
29	
20	
27	
15	
16	
16	
16	
12	
19	
12	
15	
17	
12	
18	
12	
14	
15	
18	
12	
20	
17	
25	
24	
17	
23	
13	
15	
19	
10	
21	
12	
23	
14	
21	
15	
15	
15	
19	
14	
12	
19	
16	
18	
18	
22	
16	
18	
21	
13	
21	
23	
19	
19	
14	
18	
20	
17	
17	
24	
17	
13	
19	
16	
16	
15	
14	
12	
24	
12	
19	
15	
11	
19	
23	
17	
23	
12	
16	
14	
18	
19	
13	
13	
15	
27	
20	
19	
12	
13	
18	
16	
18	
13	
18	
22	
10	
13	
18	
16	
27	
6	
8	
23	
10	
18	
16	
25	
25	
9	
21	
16	
17	
16	
15	
15	
22	
12	
22	
14	
19	
13	
18	
27	
20	
22	
16	
17	
18	
12	
21	
13	
13	
28	
14	
20	
24	
15	
15	
7	
19	
13	
17	
24	
22	
15	
12	
12	
14	
12	
19	
10	
11	
26	
23	
14	
10	
19	
10	
17	
17	
18	
11	
12	
15	
12	
16	
16	
14	
17	
19	
25	
17	
15	
19	
15	
14	
9	
16	
22	
19	
20	
15	
18	
17	
11	
22	
16	
12	
16	
11	
19	
20	
14	
11	
15	
18	
11	
17	
10	
15	
13	
17	
13	
16	
14	
22	
13	
10	
10	
16	
13	
11	
14	
10	
28	
11	
18	
11	
16	
11	
24	
18	
12	
17	
17	
20	
12	
17	
16	
15	
15	
10	
14	
16	
6	
15	
9	
15	
16	
13	
11	
13	
15	
14	
19	
15	
18	
24	
19	
17	
14	
16	
14	
7	
7	
18	
10	
13	
15	
15	
12	
20	
11	
19	
16	
16	
11	
10	
22	
20	
12	
16	
13	
8	
22	
8	
13	
13	
12	
12	
14	
14	
11	
12	
17	
15	
12	
16	
20	
13	
14	
19	
19	
10	
17	
16	
14	
16	
17	
14	
19	
18	
13	
17	
13	
10	
13	
16	
14	
15	
14	
14	
11	
12	
15	
17	
10	
14	
19	
17	
14	
17	
12	
16	
14	
14	
17	
22	
15	
16	
14	
16	
21	
13	
20	
11	
23	
19	
15	
11	
16	
10	
14	
13	
13	
20	
21	
15	
20	
11	
12	
14	
15	
12	
19	
21	
9	
16	
14	
17	
14	
16	
12	
15	
16	
19	
20	
12	
21	
11	
12	
12	
15	
17	
22	
11	
16	
20	
12	
18	
20	
20	
19	
12	
15	
19	
14	
12	
9	
14	
11	
13	
14	
22	
15	
13	
11	
22	
18	
17	
11	
12	
11	
13	
14	
14	
15	
31	
17	
14	
12	
15	
15	
10	
16	
3	
11	
11	
16	
8	
13	
13	
10	
19	
17	
18	
11	
9	
19	
15	
19	
13	
15	
18	
14	
9	
10	
18	
13	
12	
10	
10	
22	
20	
12	
24	
11	
14	
8	
12	
14	
15	
17	
10	
16	
10	
9	
14	
10	
16	
12	
12	
10	
18	
21	
9	
12	
13	
13	
13	
14	
19	
10	
9	
12	
22	
10	
17	
16	
14	
18	
22	
7	
8	
15	
18	
14	
14	
14	
14	
13	
10	
18	
18	
12	
21	
15	
13	
16	
12	
11	
11	
17	
17	
11	
18	
9	
18	
13	
16	
13	
5	
18	
7	
12	
10	
11	
17	
8	
20	
11	
15	
16	
17	
12	
19	
9	
13	
12	
7	
12	
10	
11	
8	
8	
16	
15	
10	
22	
19	
17	
16	
10	
11	
10	
14	
17	
10	
20	
17	
13	
18	
18	
16	
7	
25	
11	
19	
11	
8	
13	
8	
15	
21	
14	
14	
13	
11	
12	
19	
11	
13	
15	
19	
8	
15	
16	
24	
16	
10	
17	
17	
16	
12	
15	
12	
13	
13	
15	
14	
16	
11	
16	
10	
15	
13	
11	
11	
13	
13	
16	
15	
9	
14	
9	
8	
12	
16	
19	
11	
8	
15	
10	
15	
16	
16	
17	
9	
10	
16	
10	
7	
12	
13	
14	
8	
12	
7	
22	
12	
14	
19	
14	
17	
12	
13	
18	
13	
11	
18	
11	
9	
21	
10	
14	
11	
17	
14	
17	
13	
21	
17	
9	
11	
15	
8	
10	
13	
12	
19	
17	
13	
14	
18	
15	
11	
12	
19	
17	
18	
10	
15	
9	
12	
12	
13	
22	
16	
16	
16	
10	
11	
14	
12	
15	
20	
13	
11	
8	
17	
9	
18	
14	
11	
13	
13	
14	
18	
16	
14	
11	
12	
13	
8	
15	
12	
15	
11	
13	
10	
15	
7	
10	
11	
12	
11	
9	
19	
13	
17	
12	
12	
14	
19	
18	
11	
12	
14	
15	
6	
11	
14	
10	
13	
14	
9	
5	
13	
10	
18	
17	
16	
10	
16	
14	
18	
19	
19	
11	
10	
9	
14	
12	
12	
11	
13	
17	
8	
9	
10	
12	
13	
14	
17	
14	
12	
10	
17	
16	
8	
16	
12	
7	
12	
8	
11	
10	
11	
13	
15	
13	
7	
6	
25	
15	
12	
10	
14	
11	
11	
10	
5	
9	
13	
15	
11	
13	
7	
14	
13	
13	
11	
9	
26	
12	
17	
14	
12	
12	
10	
16	
11	
18	
16	
11	
8	
12	
10	
12	
14	
16	
14	
8	
15	
15	
12	
13	
14	
10	
10	
15	
12	
19	
17	
12	
11	
11	
7	
10	
15	
21	
9	
18	
14	
19	
14	
15	
8	
11	
9	
14	
15	
12	
8	
10	
13	
16	
9	
19	
14	
11	
12	
11	
12	
10	
16	
18	
13	
10	
6	
9	
8	
19	
14	
16	
7	
5	
12	
12	
13	
11	
8	
10	
14	
17	
11	
20	
8	
14	
19	
15	
10	
6	
8	
11	
13	
14	
10	
13	
12	
9	
11	
18	
12	
9	
9	
11	
15	
17	
12	
16	
8	
19	
12	
8	
15	
6	
9	
13	
5	
6	
18	
8	
12	
20	
13	
13	
12	
10	
14	
16	
15	
14	
12	
15	
9	
13	
10	
15	
12	
15	
10	
7	
9	
7	
9	
6	
18	
15	
13	
15	
9	
12	
11	
16	
16	
7	
8	
15	
7	
10	
8	
15	
12	
12	
15	
11	
11	
12	
17	
13	
19	
12	
8	
12	
10	
13	
16	
17	
11	
10	
16	
12	
17	
6	
15	
16	
15	
11	
16	
14	
15	
17	
8	
11	
9	
15	
9	
12	
9	
6	
9	
7	
14	
15	
10	
6	
12	
9	
10	
12	
13	
8	
7	
8	
4	
13	
9	
17	
10	
9	
10	
18	
11	
8	
14	
13	
7	
11	
9	
9	
14	
12	
6	
20	
14	
14	
16	
16	
7	
10	
17	
11	
16	
17	
18	
11	
8	
12	
16	
6	
13	
11	
11	
17	
12	
8	
10	
16	
19	
10	
6	
15	
16	
11	
14	
12	
12	
8	
12	
9	
10	
12	
12	
15	
14	
10	
6	
13	
9	
12	
12	
3	
14	
10	
9	
9	
10	
20	
8	
14	
9	
7	
17	
10	
7	
15	
15	
14	
15	
20	
14	
15	
12	
12	
14	
11	
12	
13	
17	
6	
11	
16	
10	
15	
5	
11	
13	
10	
14	
15	
13	
11	
16	
12	
7	
11	
12	
9	
22	
9	
7	
9	
10	
9	
5	
14	
11	
11	
7	
13	
12	
10	
20	
10	
13	
6	
9	
12	
9	
15	
19	
11	
17	
14	
11	
13	
16	
9	
11	
9	
9	
12	
11	
9	
10	
9	
18	
18	
11	
7	
10	
9	
6	
10	
8	
7	
11	
11	
15	
14	
12	
11	
16	
15	
15	
24	
12	
12	
9	
8	
8	
6	
6	
9	
13	
11	
11	
12	
10	
8	
8	
8	
11	
11	
10	
9	
16	
12	
19	
11	
14	
8	
18	
8	
7	
13	
16	
11	
9	
15	
16	
13	
8	
9	
15	
10	
12	
6	
13	
10	
14	
8	
11	
16	
11	
15	
11	
10	
12	
11	
9	
9	
11	
6	
9	
10	
7	
8	
10	
13	
8	
10	
10	
8	
9	
8	
13	
11	
10	
11	
13	
12	
8	
8	
3	
8	
13	
11	
10	
17	
16	
8	
7	
17	
9	
10	
12	
12	
6	
11	
8	
9	
17	
8	
7	
16	
7	
12	
15	
9	
14	
10	
11	
11	
16	
12	
10	
6	
10	
14	
15	
6	
8	
7	
8	
6	
10	
12	
6	
11	
9	
10	
10	
15	
14	
12	
4	
10	
12	
10	
7	
9	
10	
9	
14	
13	
11	
16	
9	
7	
8	
10	
7	
10	
10	
3	
10	
13	
11	
9	
10	
11	
6	
12	
15	
10	
14	
9	
11	
9	
14	
11	
7	
12	
10	
12	
5	
8	
9	
14	
14	
9	
14	
8	
15	
6	
6	
8	
8	
15	
13	
11	
17	
7	
11	
9	
4	
13	
11	
16	
15	
7	
12	
8	
6	
13	
12	
12	
16	
11	
11	
7	
10	
10	
17	
9	
10	
8	
12	
8	
12	
6	
19	
10	
5	
6	
15	
11	
13	
9	
13	
11	
9	
9	
7	
14	
15	
18	
16	
11	
12	
10	
5	
12	
11	
9	
13	
11	
11	
17	
8	
10	
10	
9	
10	
13	
13	
12	
6	
8	
9	
3	
12	
13	
12	
14	
5	
7	
7	
9	
11	
7	
8	
12	
8	
5	
11	
9	
10	
6	
10	
5	
11	
9	
10	
11	
8	
8	
5	
13	
9	
5	
8	
11	
9	
11	
10	
13	
12	
11	
8	
15	
13	
6	
12	
15	
14	
17	
11	
8	
10	
5	
14	
12	
10	
6	
4	
8	
15	
6	
5	
8	
10	
12	
8	
6	
15	
8	
8	
14	
11	
11	
8	
9	
12	
12	
8	
13	
7	
8	
12	
10	
10	
12	
7	
16	
11	
9	
6	
11	
13	
10	
7	
8	
12	
15	
4	
6	
7	
12	
8	
8	
9	
9	
7	
9	
9	
9	
9	
11	
15	
12	
6	
11	
15	
9	
7	
8	
8	
6	
15	
2	
11	
5	
12	
12	
13	
16	
9	
12	
7	
8	
13	
9	
7	
9	
14	
11	
10	
7	
15	
14	
5	
10	
13	
12	
11	
6	
8	
11	
2	
9	
11	
10	
12	
15	
9	
10	
8	
11	
5	
8	
11	
9	
5	
9	
9	
11	
12	
10	
6	
10	
10	
11	
10	
9	
8	
3	
18	
8	
6	
14	
11	
8	
8	
7	
15	
7	
5	
8	
12	
14	
7	
8	
9	
10	
5	
7	
8	
7	
13	
11	
8	
8	
8	
9	
7	
4	
8	
13	
12	
9	
13	
10	
7	
9	
13	
14	
13	
12	
8	
6	
12	
5	
10	
11	
3	
14	
10	
7	
8	
12	
7	
14	
16	
6	
13	
5	
10	
10	
12	
11	
8	
10	
7	
7	
9	
7	
7	
10	
8	
3	
13	
5	
13	
7	
5	
6	
5	
7	
8	
14	
11	
6	
12	
7	
6	
8	
7	
9	
5	
7	
5	
7	
7	
6	
5	
8	
9	
10	
9	
17	
9	
13	
8	
10	
3	
8	
7	
12	
8	
11	
10	
4	
12	
10	
8	
12	
7	
8	
11	
9	
10	
9	
7	
3	
9	
11	
8	
14	
11	
10	
5	
9	
13	
12	
6	
19	
11	
13	
6	
7	
9	
7	
10	
8	
12	
6	
5	
11	
13	
10	
7	
12	
14	
7	
14	
14	
8	
6	
12	
10	
14	
6	
7	
7	
12	
16	
7	
11	
10	
5	
10	
6	
13	
9	
5	
7	
7	
8	
6	
6	
12	
11	
10	
9	
7	
7	
7	
5	
6	
10	
3	
10	
7	
10	
8	
10	
10	
9	
9	
5	
10	
10	
10	
12	
11	
10	
7	
9	
10	
9	
11	
7	
10	
10	
10	
11	
7	
13	
4	
11	
8	
7	
8	
6	
10	
11	
10	
13	
8	
9	
7	
14	
9	
5	
10	
14	
5	
15	
16	
8	
6	
9	
8	
9	
10	
3	
8	
10	
6	
8	
8	
4	
11	
5	
12	
10	
8	
6	
5	
7	
11	
10	
5	
7	
7	
4	
3	
9	
9	
11	
9	
7	
10	
10	
8	
5	
12	
11	
10	
15	
8	
5	
5	
5	
9	
9	
9	
7	
8	
4	
10	
7	
12	
12	
9	
16	
7	
8	
4	
11	
9	
11	
8	
8	
6	
9	
5	
14	
16	
14	
11	
6	
7	
9	
9	
9	
11	
8	
6	
11	
9	
5	
11	
7	
11	
11	
18	
11	
13	
11	
7	
12	
8	
8	
10	
16	
4	
7	
9	
7	
18	
6	
9	
12	
13	
10	
8	
7	
11	
10	
9	
12	
8	
10	
9	
3	
9	
12	
7	
10	
11	
7	
7	
7	
9	
8	
11	
8	
8	
12	
7	
4	
11	
8	
10	
9	
5	
11	
4	
6	
8	
6	
2	
15	
12	
8	
4	
16	
11	
9	
10	
13	
9	
7	
9	
5	
5	
12	
8	
6	
12	
9	
7	
7	
7	
7	
6	
7	
2	
5	
11	
10	
8	
7	
5	
4	
6	
7	
5	
3	
9	
7	
6	
7	
5	
7	
12	
13	
4	
3	
10	
8	
8	
5	
9	
8	
6	
6	
11	
8	
7	
10	
6	
8	
5	
12	
3	
6	
9	
8	
13	
11	
10	
8	
4	
15	
5	
10	
6	
5	
10	
8	
7	
9	
7	
10	
10	
9	
9	
12	
7	
9	
11	
9	
12	
6	
5	
8	
7	
12	
8	
5	
5	
13	
9	
7	
17	
7	
3	
9	
6	
7	
13	
11	
7	
11	
11	
8	
5	
10	
5	
12	
9	
4	
8	
4	
10	
7	
11	
11	
5	
13	
9	
6	
3	
8	
4	
8	
10	
4	
14	
7	
6	
12	
7	
6	
9	
5	
13	
10	
11	
8	
10	
10	
6	
6	
10	
2	
9	
4	
10	
5	
4	
5	
5	
5	
8	
10	
9	
12	
5	
7	
7	
12	
14	
12	
6	
10	
10	
6	
5	
4	
11	
5	
7	
9	
10	
4	
7	
5	
8	
11	
10	
9	
9	
9	
7	
6	
7	
3	
8	
8	
3	
5	
8	
14	
8	
6	
8	
3	
6	
7	
4	
11	
12	
6	
11	
7	
9	
4	
5	
3	
7	
10	
8	
8	
16	
10	
7	
6	
14	
9	
7	
8	
9	
6	
10	
6	
6	
5	
9	
9	
5	
6	
8	
5	
12	
9	
12	
18	
6	
11	
13	
6	
6	
5	
5	
8	
6	
8	
10	
6	
5	
7	
7	
7	
7	
10	
7	
9	
8	
9	
3	
9	
9	
5	
5	
7	
8	
10	
7	
4	
10	
8	
11	
3	
7	
6	
4	
5	
7	
5	
7	
6	
6	
4	
7	
4	
8	
9	
10	
4	
7	
5	
7	
8	
7	
2	
6	
8	
7	
6	
10	
11	
9	
6	
5	
10	
6	
7	
9	
3	
4	
7	
8	
10	
5	
9	
6	
5	
7	
8	
13	
5	
7	
4	
10	
8	
3	
8	
12	
8	
6	
7	
9	
7	
5	
9	
5	
11	
5	
7	
6	
4	
7	
10	
13	
6	
4	
6	
5	
4	
11	
8	
9	
8	
12	
10	
3	
9	
6	
9	
5	
6	
9	
6	
7	
3	
8	
10	
9	
7	
8	
6	
9	
10	
8	
6	
7	
7	
3	
4	
7	
3	
8	
9	
4	
7	
7	
17	
5	
5	
5	
7	
7	
8	
6	
10	
6	
10	
5	
6	
9	
5	
4	
11	
5	
8	
4	
10	
1	
10	
13	
4	
6	
4	
4	
8	
6	
7	
5	
10	
11	
8	
8	
5	
5	
11	
10	
8	
9	
3	
5	
3	
4	
5	
7	
7	
10	
4	
14	
7	
5	
8	
5	
1	
6	
12	
10	
7	
6	
4	
6	
8	
8	
9	
4	
4	
3	
7	
10	
5	
10	
7	
12	
11	
7	
4	
12	
8	
5	
7	
5	
9	
4	
6	
10	
8	
4	
3	
6	
5	
7	
8	
4	
6	
12	
11	
4	
8	
9	
9	
5	
7	
7	
6	
11	
7	
8	
11	
6	
3	
8	
5	
8	
10	
4	
9	
7	
11	
10	
6	
4	
5	
6	
7	
7	
3	
6	
5	
5	
6	
18	
6	
9	
9	
4	
9	
9	
6	
7	
5	
8	
3	
4	
6	
9	
6	
9	
4	
2	
7	
8	
9	
9	
4	
7	
7	
12	
12	
7	
10	
6	
8	
11	
7	
11	
2	
10	
7	
5	
3	
9	
10	
15	
7	
7	
7	
6	
7	
4	
5	
3	
8	
6	
5	
10	
8	
6	
13	
11	
7	
12	
6	
6	
6	
9	
6	
10	
7	
6	
4	
4	
8	
6	
6	
4	
10	
9	
4	
13	
3	
8	
6	
6	
5	
9	
6	
4	
3	
11	
12	
3	
6	
9	
2	
9	
4	
4	
7	
7	
7	
6	
2	
4	
7	
4	
6	
2	
5	
4	
7	
8	
9	
5	
1	
12	
6	
7	
4	
6	
6	
5	
12	
5	
5	
8	
7	
12	
4	
5	
9	
8	
3	
3	
8	
6	
10	
13	
1	
7	
5	
6	
8	
3	
2	
6	
8	
8	
7	
10	
3	
12	
10	
7	
9	
9	
5	
4	
5	
6	
5	
7	
7	
10	
6	
8	
6	
5	
3	
8	
6	
8	
4	
4	
13	
7	
8	
9	
6	
10	
7	
4	
9	
4	
6	
6	
7	
6	
4	
5	
11	
5	
9	
10	
7	
7	
11	
7	
7	
3	
6	
6	
1	
6	
10	
3	
5	
8	
6	
2	
5	
6	
4	
8	
5	
5	
5	
7	
7	
9	
8	
5	
7	
3	
9	
7	
2	
11	
7	
2	
5	
11	
11	
10	
1	
13	
4	
4	
6	
6	
9	
10	
6	
6	
10	
10	
11	
12	
3	
6	
7	
7	
1	
9	
8	
6	
3	
8	
5	
10	
2	
5	
3	
8	
11	
8	
5	
7	
5	
6	
6	
8	
9	
6	
5	
6	
5	
6	
5	
3	
3	
9	
9	
3	
7	
12	
3	
9	
7	
9	
4	
4	
6	
6	
5	
4	
4	
8	
10	
8	
4	
5	
12	
3	
3	
3	
7	
4	
5	
4	
5	
8	
6	
6	
8	
10	
6	
8	
8	
7	
2	
9	
5	
7	
3	
6	
8	
6	
5	
5	
13	
6	
8	
6	
3	
6	
6	
5	
6	
5	
4	
8	
8	
13	
8	
5	
8	
7	
4	
9	
8	
1	
6	
7	
8	
6	
5	
6	
4	
14	
6	
7	
5	
8	
10	
4	
5	
7	
12	
5	
6	
9	
9	
2	
3	
8	
9	
4	
5	
3	
11	
4	
7	
14	
5	
10	
6	
8	
6	
5	
5	
3	
5	
8	
8	
9	
9	
3	
6	
6	
6	
1	
2	
6	
3	
11	
4	
5	
9	
5	
6	
10	
8	
8	
4	
7	
8	
4	
8	
4	
7	
4	
7	
5	
5	
6	
4	
5	
6	
9	
4	
8	
12	
4	
3	
4	
7	
4	
6	
3	
11	
8	
7	
6	
7	
2	
2	
1	
7	
10	
5	
6	
6	
6	
2	
4	
0	
6	
5	
7	
1	
4	
9	
5	
6	
5	
5	
6	
6	
4	
5	
5	
9	
4	
7	
6	
8	
8	
7	
3	
7	
3	
9	
7	
5	
3	
7	
9	
3	
3	
12	
8	
6	
8	
5	
1	
2	
3	
6	
2	
7	
7	
10	
9	
2	
4	
6	
5	
8	
6	
7	
4	
8	
5	
7	
7	
4	
4	
4	
3	
5	
5	
6	
8	
3	
8	
6	
2	
5	
7	
4	
7	
5	
7	
4	
5	
6	
6	
6	
5	
5	
5	
4	
5	
9	
7	
4	
4	
8	
4	
7	
4	
6	
2	
7	
5	
4	
5	
8	
5	
8	
7	
8	
5	
7	
4	
6	
7	
4	
8	
8	
1	
7	
3	
3	
4	
7	
3	
4	
6	
6	
8	
4	
2	
3	
6	
1	
6	
6	
4	
4	
5	
6	
5	
6	
3	
4	
7	
3	
9	
7	
12	
5	
6	
7	
10	
7	
7	
6	
4	
4	
9	
4	
4	
5	
5	
5	
4	
8	
11	
3	
2	
2	
7	
6	
6	
7	
7	
6	
5	
10	
5	
6	
5	
6	
5	
4	
2	
8	
5	
3	
3	
9	
8	
5	
6	
4	
4	
6	
8	
13	
9	
5	
3	
7	
4	
8	
3	
7	
10	
4	
3	
3	
4	
4	
6	
6	
4	
3	
4	
2	
2	
8	
5	
2	
3	
5	
8	
4	
5	
2	
6	
7	
3	
5	
9	
4	
10	
1	
7	
1	
4	
7	
7	
8	
6	
7	
6	
8	
5	
3	
7	
3	
4	
5	
10	
7	
9	
5	
5	
7	
5	
6	
3	
3	
3	
12	
5	
4	
6	
7	
2	
3	
8	
5	
6	
6	
2	
3	
7	
5	
5	
3	
8	
6	
4	
5	
6	
4	
3	
6	
5	
7	
2	
4	
7	
8	
2	
7	
5	
4	
5	
8	
7	
3	
6	
5	
6	
3	
3	
6	
2	
6	
3	
5	
4	
5	
3	
4	
5	
4	
6	
7	
6	
4	
4	
6	
7	
9	
4	
8	
5	
7	
8	
9	
3	
4	
7	
5	
6	
2	
1	
6	
4	
9	
2	
5	
9	
7	
11	
3	
4	
3	
3	
4	
6	
6	
7	
7	
4	
6	
5	
3	
8	
1	
4	
3	
2	
3	
10	
3	
7	
8	
3	
4	
8	
8	
4	
5	
4	
2	
7	
4	
5	
8	
7	
4	
8	
6	
5	
9	
7	
5	
7	
7	
4	
3	
8	
8	
6	
5	
4	
7	
5	
3	
6	
5	
3	
3	
4	
4	
6	
1	
6	
0	
5	
5	
8	
4	
8	
5	
6	
5	
8	
4	
12	
4	
6	
8	
4	
5	
4	
7	
3	
9	
5	
5	
4	
8	
7	
7	
6	
1	
9	
0	
9	
4	
3	
13	
3	
8	
3	
6	
4	
9	
6	
4	
6	
6	
5	
0	
9	
3	
3	
5	
7	
1	
7	
5	
10	
5	
8	
7	
2	
8	
5	
5	
7	
9	
6	
5	
4	
8	
6	
3	
6	
2	
2	
10	
6	
6	
4	
7	
4	
7	
4	
6	
6	
6	
6	
4	
5	
11	
3	
7	
10	
1	
5	
6	
10	
3	
1	
6	
6	
1	
7	
1	
3	
5	
11	
5	
6	
7	
5	
2	
4	
5	
7	
7	
6	
4	
9	
5	
8	
3	
3	
2	
5	
4	
4	
1	
5	
4	
6	
3	
7	
6	
2	
5	
4	
5	
3	
5	
5	
6	
4	
8	
6	
6	
3	
2	
5	
10	
6	
3	
4	
5	
4	
4	
7	
10	
7	
8	
3	
3	
5	
5	
7	
4	
3	
5	
5	
3	
8	
5	
2	
5	
7	
4	
3	
0	
7	
3	
6	
7	
6	
6	
6	
5	
3	
9	
2	
6	
3	
4	
4	
6	
10	
8	
4	
5	
5	
5	
4	
2	
5	
5	
5	
3	
5	
3	
5	
6	
2	
7	
7	
4	
6	
3	
5	
7	
7	
3	
4	
3	
7	
5	
4	
3	
4	
5	
5	
2	
11	
5	
5	
5	
6	
8	
3	
4	
3	
4	
2	
5	
4	
4	
3	
5	
8	
7	
7	
5	
5	
6	
6	
7	
2	
6	
4	
5	
2	
3	
8	
1	
6	
3	
3	
6	
2	
3	
4	
2	
7	
5	
6	
6	
3	
9	
6	
2	
3	
6	
3	
9	
5	
7	
4	
5	
9	
6	
2	
4	
13	
5	
4	
3	
3	
5	
6	
5	
8	
11	
5	
3	
2	
4	
6	
2	
2	
7	
5	
4	
5	
5	
1	
5	
6	
2	
5	
7	
4	
5	
5	
5	
2	
3	
9	
8	
5	
6	
6	
6	
2	
5	
5	
7	
4	
2	
4	
4	
1	
4	
2	
4	
2	
7	
2	
6	
5	
3	
3	
1	
6	
2	
5	
2	
7	
2	
4	
2	
6	
8	
4	
3	
7	
3	
0	
6	
4	
6	
6	
2	
5	
6	
2	
3	
5	
8	
3	
7	
8	
7	
3	
4	
3	
4	
5	
1	
4	
5	
4	
6	
7	
2	
8	
8	
7	
8	
3	
5	
5	
7	
6	
3	
3	
1	
5	
5	
6	
1	
3	
8	
12	
3	
6	
5	
7	
12	
7	
3	
6	
8	
10	
5	
5	
3	
5	
5	
5	
3	
3	
3	
2	
3	
2	
0	
4	
1	
5	
7	
8	
3	
2	
8	
6	
2	
7	
4	
7	
2	
4	
3	
3	
7	
9	
4	
4	
6	
3	
5	
0	
8	
6	
4	
2	
7	
6	
6	
3	
4	
8	
2	
6	
5	
5	
7	
5	
2	
3	
6	
3	
3	
4	
5	
5	
9	
5	
3	
3	
3	
6	
7	
6	
3	
4	
3	
3	
4	
1	
5	
2	
5	
5	
4	
3	
1	
4	
4	
2	
8	
6	
5	
2	
3	
2	
7	
3	
6	
2	
3	
9	
5	
3	
2	
4	
8	
5	
8	
3	
4	
6	
5	
4	
3	
3	
4	
7	
3	
3	
2	
2	
2	
4	
6	
5	
2	
7	
7	
1	
4	
5	
6	
6	
4	
10	
5	
5	
11	
2	
5	
7	
4	
4	
2	
6	
3	
5	
5	
4	
3	
6	
1	
2	
4	
0	
6	
3	
5	
6	
0	
5	
6	
6	
6	
4	
6	
4	
3	
1	
5	
6	
1	
2	
5	
4	
4	
4	
6	
4	
9	
3	
3	
5	
3	
5	
3	
5	
1	
3	
6	
2	
3	
5	
6	
4	
7	
2	
5	
5	
3	
9	
1	
5	
3	
4	
4	
5	
3	
6	
6	
3	
3	
7	
7	
7	
7	
5	
7	
6	
3	
2	
4	
8	
5	
3	
5	
4	
2	
7	
8	
6	
4	
9	
3	
4	
0	
4	
4	
4	
6	
5	
6	
4	
6	
5	
8	
3	
2	
7	
4	
5	
3	
1	
7	
1	
2	
7	
5	
7	
6	
4	
3	
7	
3	
4	
4	
3	
6	
4	
6	
3	
0	
8	
1	
6	
3	
1	
1	
2	
5	
2	
5	
8	
3	
5	
4	
5	
4	
3	
4	
8	
7	
6	
5	
3	
6	
5	
4	
1	
3	
4	
5	
6	
4	
7	
6	
2	
5	
5	
6	
2	
4	
4	
4	
10	
2	
3	
4	
3	
9	
3	
5	
4	
7	
3	
0	
3	
5	
3	
6	
0	
6	
4	
5	
4	
8	
3	
7	
4	
1	
3	
4	
3	
3	
1	
3	
6	
1	
2	
8	
6	
6	
3	
3	
5	
3	
3	
2	
7	
2	
4	
7	
9	
5	
6	
3	
5	
4	
2	
4	
4	
4	
3	
5	
7	
8	
5	
6	
3	
2	
4	
4	
1	
6	
5	
1	
6	
2	
4	
1	
8	
5	
2	
5	
6	
7	
7	
1	
5	
1	
6	
3	
2	
8	
5	
6	
4	
4	
4	
1	
3	
3	
4	
6	
4	
3	
4	
3	
0	
8	
6	
2	
3	
3	
2	
7	
6	
4	
3	
3	
2	
1	
2	
2	
9	
2	
5	
1	
5	
2	
6	
5	
4	
2	
7	
1	
2	
11	
9	
11	
2	
2	
3	
5	
8	
3	
3	
9	
5	
7	
3	
3	
5	
0	
3	
3	
7	
5	
2	
4	
1	
4	
3	
7	
0	
4	
6	
2	
2	
5	
6	
6	
0	
2	
2	
1	
1	
4	
1	
4	
1	
3	
4	
6	
7	
3	
8	
5	
4	
5	
1	
5	
7	
5	
6	
7	
5	
2	
3	
8	
7	
7	
4	
1	
2	
10	
5	
9	
5	
6	
4	
5	
8	
4	
3	
5	
4	
6	
4	
3	
6	
4	
4	
2	
4	
4	
6	
4	
5	
4	
6	
3	
3	
3	
4	
6	
2	
5	
0	
4	
2	
6	
2	
6	
9	
3	
0	
1	
7	
4	
4	
1	
4	
4	
3	
3	
4	
7	
4	
6	
4	
3	
9	
3	
6	
6	
4	
4	
5	
7	
4	
4	
2	
0	
3	
1	
3	
3	
3	
8	
4	
3	
5	
3	
3	
1	
4	
1	
5	
7	
3	
4	
4	
2	
3	
3	
4	
2	
2	
3	
1	
2	
8	
6	
4	
4	
8	
6	
4	
3	
3	
6	
4	
4	
7	
1	
2	
3	
2	
4	
3	
4	
9	
2	
4	
3	
6	
2	
7	
2	
2	
3	
7	
4	
3	
8	
5	
7	
1	
8	
4	
7	
5	
4	
2	
6	
3	
5	
5	
3	
2	
6	
6	
1	
2	
5	
3	
2	
5	
5	
6	
2	
2	
3	
2	
2	
3	
5	
2	
5	
8	
1	
1	
8	
0	
3	
7	
3	
7	
5	
5	
5	
4	
6	
1	
4	
3	
5	
5	
5	
5	
3	
4	
3	
3	
2	
6	
2	
0	
4	
7	
9	
4	
6	
4	
3	
3	
1	
3	
2	
4	
1	
2	
5	
10	
2	
3	
2	
4	
5	
8	
4	
5	
3	
6	
4	
5	
5	
5	
4	
1	
6	
5	
5	
2	
1	
5	
0	
4	
3	
6	
4	
3	
5	
6	
2	
3	
2	
2	
3	
3	
5	
3	
3	
6	
1	
3	
2	
2	
10	
3	
5	
1	
1	
3	
3	
6	
2	
4	
4	
3	
3	
4	
4	
4	
3	
4	
3	
10	
5	
5	
3	
3	
2	
3	
1	
3	
2	
3	
4	
1	
5	
6	
6	
6	
3	
4	
4	
4	
4	
6	
3	
6	
4	
1	
5	
0	
3	
7	
2	
5	
2	
4	
4	
5	
1	
1	
5	
2	
7	
7	
2	
3	
4	
4	
4	
3	
4	
3	
2	
5	
0	
3	
3	
8	
1	
3	
2	
5	
2	
3	
3	
2	
3	
8	
4	
1	
2	
3	
3	
3	
3	
7	
3	
2	
1	
6	
3	
3	
2	
3	
6	
5	
6	
5	
8	
2	
3	
3	
5	
5	
3	
4	
2	
2	
7	
8	
4	
2	
1	
4	
4	
2	
8	
2	
3	
3	
6	
6	
7	
6	
2	
10	
2	
1	
1	
6	
6	
4	
1	
2	
2	
10	
5	
0	
2	
9	
4	
6	
4	
3	
5	
3	
1	
4	
2	
5	
4	
7	
6	
6	
3	
0	
1	
2	
1	
4	
4	
2	
6	
4	
2	
4	
3	
1	
7	
3	
5	
7	
6	
6	
3	
3	
4	
5	
1	
4	
5	
3	
4	
3	
2	
7	
3	
2	
4	
3	
3	
4	
1	
4	
5	
7	
4	
1	
1	
2	
6	
1	
4	
4	
8	
3	
7	
9	
2	
4	
3	
3	
0	
2	
1	
3	
1	
6	
3	
3	
5	
3	
3	
2	
5	
4	
5	
4	
5	
5	
5	
4	
7	
2	
6	
4	
0	
6	
2	
1	
3	
7	
2	
5	
1	
5	
2	
3	
2	
7	
6	
6	
2	
3	
3	
5	
4	
2	
3	
4	
2	
5	
2	
1	
3	
3	
2	
6	
2	
6	
6	
3	
3	
5	
5	
5	
7	
4	
4	
3	
2	
5	
5	
7	
3	
2	
3	
3	
5	
2	
4	
3	
3	
2	
4	
5	
4	
5	
5	
5	
6	
3	
3	
2	
2	
3	
2	
2	
5	
4	
3	
4	
2	
7	
3	
7	
9	
7	
3	
4	
5	
0	
9	
3	
2	
7	
7	
6	
3	
3	
3	
6	
2	
1	
5	
4	
3	
3	
2	
4	
4	
1	
0	
7	
2	
3	
7	
4	
3	
5	
5	
5	
3	
6	
3	
7	
3	
2	
4	
6	
5	
2	
3	
5	
4	
3	
6	
