#PicoHarp 300  Histogram Data			06/01/2022 02:43:38 PM
#channels per curve
65536
#display curve no.
0	
#memory block no.
0	
#ns/channel
0.0320	
#counts
2	
1	
1	
4	
2	
2	
2	
1	
0	
2	
1	
6	
2	
3	
0	
4	
3	
1	
4	
6	
1	
2	
2	
3	
3	
1	
4	
0	
4	
3	
2	
1	
2	
1	
2	
2	
1	
3	
3	
5	
2	
2	
1	
1	
3	
2	
2	
3	
1	
1	
0	
1	
1	
2	
5	
5	
1	
2	
2	
2	
0	
2	
0	
4	
3	
3	
1	
0	
3	
0	
2	
3	
2	
1	
2	
3	
0	
3	
1	
2	
1	
5	
2	
1	
1	
2	
1	
3	
1	
2	
1	
2	
1	
5	
2	
3	
3	
2	
1	
5	
4	
0	
1	
1	
1	
3	
2	
4	
3	
0	
2	
3	
3	
4	
2	
2	
1	
3	
1	
1	
0	
0	
0	
1	
2	
0	
5	
2	
1	
0	
3	
1	
1	
2	
3	
3	
1	
4	
2	
6	
3	
2	
1	
1	
2	
2	
1	
5	
2	
3	
2	
2	
0	
1	
5	
4	
2	
3	
2	
3	
4	
4	
1	
2	
4	
2	
1	
1	
2	
2	
0	
3	
2	
4	
0	
2	
2	
4	
4	
1	
1	
2	
0	
3	
2	
0	
2	
6	
4	
4	
2	
1	
1	
3	
1	
0	
2	
3	
0	
2	
4	
2	
2	
0	
6	
3	
1	
4	
1	
2	
3	
2	
2	
3	
2	
1	
1	
2	
4	
1	
0	
3	
3	
1	
3	
1	
2	
3	
2	
1	
1	
3	
2	
0	
3	
3	
1	
1	
2	
2	
2	
2	
3	
5	
1	
3	
4	
3	
1	
5	
2	
1	
1	
6	
3	
3	
1	
2	
1	
0	
4	
2	
2	
1	
1	
2	
2	
3	
3	
1	
2	
2	
2	
3	
0	
2	
2	
4	
3	
0	
4	
2	
1	
2	
4	
0	
1	
0	
4	
3	
1	
2	
1	
4	
0	
1	
2	
1	
2	
2	
1	
3	
0	
1	
2	
0	
2	
2	
4	
2	
3	
2	
2	
3	
1	
2	
1	
0	
3	
2	
2	
5	
2	
3	
3	
1	
3	
2	
2	
3	
2	
2	
4	
1	
1	
1	
1	
2	
0	
2	
3	
3	
1	
3	
2	
2	
3	
2	
1	
3	
4	
1	
2	
3	
5	
0	
0	
3	
1	
2	
1	
1	
0	
1	
0	
5	
3	
2	
1	
3	
1	
3	
4	
3	
3	
1	
4	
4	
6	
1	
1	
2	
1	
0	
3	
3	
3	
1	
2	
1	
2	
3	
2	
1	
4	
4	
1	
7	
2	
1	
1	
5	
2	
2	
1	
3	
3	
2	
0	
3	
0	
0	
0	
1	
1	
2	
3	
3	
2	
2	
2	
2	
2	
1	
2	
1	
2	
1	
1	
0	
1	
2	
2	
2	
3	
3	
4	
2	
2	
2	
1	
1	
2	
2	
2	
3	
2	
2	
1	
1	
1	
3	
4	
3	
0	
3	
4	
3	
1	
2	
1	
2	
2	
0	
5	
0	
0	
1	
1	
1	
2	
5	
0	
2	
2	
3	
1	
2	
0	
0	
0	
1	
2	
2	
1	
3	
1	
2	
2	
1	
2	
3	
5	
0	
1	
3	
4	
1	
1	
2	
2	
2	
3	
2	
2	
5	
0	
2	
1	
2	
0	
2	
2	
1	
4	
5	
2	
1	
1	
6	
5	
4	
5	
4	
3	
4	
0	
3	
1	
5	
3	
1	
5	
2	
1	
3	
0	
3	
1	
0	
2	
4	
1	
2	
2	
3	
0	
1	
1	
2	
1	
2	
3	
2	
4	
4	
1	
1	
2	
3	
3	
1	
1	
0	
2	
1	
1	
2	
0	
2	
2	
4	
3	
3	
1	
1	
2	
3	
0	
1	
1	
1	
3	
2	
2	
2	
1	
3	
2	
3	
5	
3	
2	
3	
4	
1	
1	
2	
4	
3	
3	
2	
2	
1	
1	
3	
4	
0	
2	
2	
1	
2	
2	
5	
2	
1	
1	
4	
1	
3	
0	
1	
2	
1	
2	
5	
1	
0	
2	
0	
0	
1	
2	
1	
1	
2	
2	
4	
0	
1	
0	
2	
0	
6	
2	
1	
4	
2	
1	
2	
3	
1	
4	
1	
2	
0	
1	
1	
3	
1	
0	
2	
1	
2	
2	
0	
4	
3	
2	
5	
3	
4	
1	
3	
1	
1	
2	
1	
4	
3	
3	
3	
1	
2	
0	
1	
1	
2	
2	
1	
2	
3	
2	
1	
0	
1	
2	
2	
1	
3	
4	
2	
5	
3	
4	
1	
3	
4	
2	
3	
2	
2	
1	
0	
1	
1	
4	
0	
2	
0	
2	
3	
2	
2	
2	
5	
3	
2	
3	
2	
2	
0	
3	
3	
4	
3	
2	
0	
1	
2	
5	
2	
2	
2	
1	
1	
2	
3	
0	
2	
0	
2	
1	
2	
3	
2	
3	
1	
2	
2	
5	
0	
3	
1	
1	
0	
2	
1	
3	
4	
2	
4	
2	
4	
1	
2	
0	
3	
3	
3	
4	
3	
3	
2	
0	
3	
3	
0	
1	
2	
1	
1	
0	
1	
1	
2	
0	
5	
2	
3	
2	
1	
3	
2	
1	
4	
2	
2	
3	
5	
1	
7	
2	
0	
1	
3	
1	
2	
2	
4	
4	
3	
4	
0	
4	
2	
2	
3	
3	
3	
2	
5	
5	
0	
1	
4	
2	
4	
1	
3	
3	
2	
6	
1	
0	
3	
3	
0	
2	
3	
1	
1	
2	
3	
3	
1	
4	
4	
0	
4	
0	
0	
1	
2	
4	
1	
0	
3	
8	
0	
1	
1	
2	
3	
1	
4	
4	
1	
2	
2	
4	
0	
2	
3	
2	
2	
3	
1	
1	
2	
3	
2	
3	
3	
0	
1	
2	
1	
3	
1	
3	
3	
2	
0	
2	
1	
4	
0	
2	
0	
2	
0	
3	
6	
1	
3	
1	
4	
3	
0	
4	
5	
0	
2	
2	
3	
3	
4	
4	
3	
8	
8	
4	
5	
3	
4	
2	
3	
6	
4	
11	
13	
6	
9	
7	
11	
11	
16	
15	
19	
17	
15	
24	
12	
15	
21	
31	
36	
41	
30	
48	
56	
51	
47	
70	
68	
76	
88	
103	
94	
116	
115	
139	
152	
167	
177	
180	
180	
229	
258	
298	
288	
319	
345	
341	
362	
415	
452	
468	
544	
600	
666	
676	
694	
744	
822	
831	
920	
965	
1052	
1041	
1144	
1158	
1234	
1284	
1341	
1361	
1357	
1465	
1537	
1539	
1554	
1602	
1707	
1617	
1728	
1751	
1718	
1789	
1748	
1794	
1821	
1841	
1834	
1902	
1886	
1896	
1894	
1936	
1923	
1934	
1962	
1956	
1941	
1996	
1935	
2019	
1882	
1946	
1919	
2032	
1971	
1980	
1979	
1983	
2021	
2026	
2038	
2032	
2037	
1928	
1904	
2001	
2027	
1984	
1981	
1939	
2068	
1941	
1880	
1910	
1976	
1999	
1910	
2003	
1951	
1904	
1983	
1941	
1950	
1880	
1884	
1910	
1920	
1955	
1965	
1989	
1986	
2011	
2001	
1994	
1943	
1907	
1940	
2039	
1896	
1937	
1859	
1962	
1951	
1818	
1883	
1931	
1947	
1894	
1899	
1875	
1914	
1968	
1954	
1886	
1839	
1877	
1780	
1896	
1947	
1927	
1797	
1889	
1821	
1876	
1908	
1940	
1952	
1951	
1854	
1881	
1883	
1854	
1838	
1825	
1834	
1811	
1806	
1853	
1771	
1760	
1819	
1809	
1800	
1806	
1858	
1778	
1819	
1780	
1800	
1774	
1793	
1942	
1804	
1838	
1732	
1873	
1762	
1763	
1762	
1795	
1834	
1748	
1877	
1852	
1766	
1809	
1801	
1829	
1740	
1749	
1844	
1785	
1766	
1809	
1757	
1765	
1854	
1771	
1702	
1747	
1709	
1729	
1915	
1731	
1831	
1788	
1702	
1734	
1728	
1818	
1769	
1744	
1805	
1758	
1790	
1739	
1787	
1769	
1756	
1745	
1720	
1759	
1687	
1671	
1779	
1702	
1730	
1760	
1738	
1685	
1777	
1792	
1796	
1727	
1759	
1753	
1737	
1779	
1711	
1734	
1702	
1725	
1669	
1834	
1872	
1688	
1718	
1723	
1711	
1742	
1776	
1713	
1781	
1762	
1746	
1732	
1653	
1737	
1652	
1731	
1683	
1703	
1733	
1677	
1713	
1724	
1736	
1731	
1694	
1734	
1771	
1744	
1747	
1747	
1725	
1710	
1692	
1590	
1668	
1702	
1646	
1686	
1701	
1672	
1723	
1709	
1717	
1711	
1666	
1745	
1639	
1703	
1631	
1676	
1656	
1600	
1613	
1641	
1718	
1723	
1611	
1632	
1678	
1632	
1694	
1651	
1732	
1618	
1647	
1648	
1726	
1578	
1672	
1661	
1675	
1684	
1739	
1698	
1725	
1619	
1660	
1643	
1637	
1630	
1667	
1585	
1581	
1735	
1661	
1755	
1658	
1633	
1680	
1635	
1646	
1627	
1621	
1671	
1638	
1638	
1550	
1653	
1614	
1597	
1621	
1613	
1545	
1541	
1594	
1619	
1573	
1622	
1639	
1601	
1631	
1695	
1528	
1658	
1638	
1581	
1584	
1643	
1632	
1604	
1566	
1661	
1539	
1639	
1614	
1613	
1602	
1595	
1582	
1576	
1629	
1605	
1668	
1609	
1648	
1532	
1583	
1611	
1555	
1594	
1550	
1595	
1629	
1616	
1607	
1579	
1563	
1584	
1565	
1622	
1585	
1571	
1651	
1581	
1513	
1545	
1528	
1569	
1584	
1570	
1643	
1551	
1555	
1578	
1523	
1518	
1539	
1558	
1579	
1583	
1544	
1636	
1542	
1560	
1604	
1569	
1517	
1569	
1530	
1580	
1569	
1555	
1522	
1490	
1551	
1554	
1532	
1582	
1549	
1563	
1565	
1590	
1540	
1517	
1555	
1483	
1481	
1535	
1552	
1581	
1487	
1553	
1546	
1538	
1504	
1506	
1450	
1509	
1451	
1505	
1484	
1477	
1529	
1514	
1496	
1514	
1516	
1465	
1531	
1532	
1570	
1509	
1537	
1470	
1495	
1490	
1517	
1504	
1500	
1592	
1502	
1454	
1545	
1558	
1547	
1456	
1526	
1515	
1493	
1468	
1510	
1417	
1449	
1497	
1485	
1474	
1453	
1446	
1494	
1496	
1489	
1544	
1476	
1531	
1417	
1471	
1509	
1569	
1486	
1418	
1538	
1516	
1531	
1509	
1514	
1430	
1521	
1443	
1467	
1470	
1411	
1469	
1491	
1502	
1454	
1451	
1408	
1459	
1437	
1517	
1424	
1498	
1470	
1485	
1447	
1434	
1477	
1496	
1508	
1495	
1497	
1473	
1404	
1453	
1476	
1386	
1459	
1434	
1411	
1449	
1430	
1484	
1440	
1517	
1412	
1485	
1431	
1375	
1485	
1455	
1490	
1444	
1389	
1425	
1461	
1464	
1428	
1410	
1409	
1454	
1435	
1474	
1426	
1467	
1429	
1534	
1387	
1394	
1450	
1407	
1491	
1438	
1442	
1364	
1436	
1369	
1381	
1390	
1432	
1455	
1413	
1413	
1416	
1446	
1364	
1384	
1381	
1382	
1494	
1431	
1463	
1409	
1433	
1430	
1453	
1451	
1404	
1380	
1390	
1397	
1412	
1409	
1437	
1297	
1397	
1464	
1348	
1408	
1388	
1371	
1395	
1415	
1435	
1399	
1436	
1480	
1344	
1332	
1320	
1363	
1369	
1339	
1417	
1394	
1411	
1383	
1339	
1359	
1417	
1344	
1462	
1339	
1364	
1339	
1399	
1413	
1433	
1397	
1338	
1361	
1403	
1415	
1376	
1305	
1385	
1325	
1419	
1407	
1383	
1384	
1366	
1390	
1429	
1395	
1423	
1407	
1340	
1313	
1357	
1321	
1331	
1344	
1318	
1387	
1397	
1376	
1367	
1270	
1399	
1379	
1342	
1412	
1411	
1301	
1359	
1394	
1366	
1322	
1388	
1282	
1295	
1368	
1340	
1394	
1409	
1352	
1413	
1393	
1382	
1311	
1286	
1374	
1361	
1279	
1346	
1326	
1341	
1345	
1305	
1304	
1336	
1289	
1354	
1359	
1331	
1328	
1330	
1308	
1355	
1328	
1370	
1322	
1363	
1377	
1329	
1312	
1357	
1394	
1307	
1330	
1349	
1365	
1298	
1284	
1361	
1281	
1286	
1370	
1318	
1270	
1328	
1294	
1285	
1273	
1259	
1339	
1376	
1372	
1299	
1328	
1305	
1344	
1328	
1331	
1263	
1419	
1309	
1347	
1333	
1323	
1386	
1232	
1304	
1341	
1257	
1343	
1289	
1301	
1269	
1343	
1294	
1330	
1302	
1260	
1309	
1292	
1309	
1259	
1291	
1251	
1290	
1326	
1274	
1290	
1294	
1374	
1385	
1311	
1281	
1282	
1304	
1258	
1284	
1321	
1255	
1359	
1292	
1293	
1307	
1306	
1290	
1215	
1292	
1330	
1281	
1305	
1304	
1252	
1347	
1258	
1239	
1297	
1216	
1204	
1322	
1263	
1311	
1280	
1246	
1248	
1239	
1261	
1260	
1331	
1231	
1191	
1275	
1269	
1246	
1233	
1276	
1231	
1198	
1281	
1312	
1232	
1304	
1243	
1258	
1206	
1227	
1342	
1241	
1231	
1146	
1223	
1276	
1283	
1216	
1290	
1240	
1267	
1341	
1275	
1237	
1290	
1247	
1226	
1333	
1332	
1277	
1287	
1223	
1288	
1267	
1205	
1190	
1168	
1284	
1217	
1268	
1242	
1216	
1214	
1292	
1215	
1265	
1241	
1250	
1226	
1247	
1237	
1201	
1218	
1226	
1222	
1153	
1174	
1264	
1303	
1164	
1270	
1282	
1235	
1238	
1210	
1207	
1246	
1231	
1225	
1203	
1255	
1221	
1221	
1223	
1209	
1210	
1241	
1198	
1185	
1261	
1223	
1235	
1291	
1189	
1136	
1191	
1241	
1296	
1218	
1214	
1201	
1171	
1170	
1182	
1205	
1199	
1270	
1316	
1254	
1198	
1214	
1229	
1239	
1315	
1211	
1187	
1224	
1223	
1232	
1155	
1248	
1250	
1218	
1163	
1202	
1175	
1181	
1157	
1192	
1131	
1231	
1170	
1251	
1249	
1155	
1179	
1224	
1184	
1157	
1177	
1230	
1118	
1243	
1170	
1193	
1235	
1213	
1167	
1151	
1154	
1157	
1135	
1124	
1152	
1183	
1197	
1168	
1095	
1223	
1205	
1165	
1270	
1242	
1151	
1159	
1208	
1210	
1172	
1174	
1192	
1173	
1225	
1214	
1247	
1196	
1211	
1187	
1193	
1124	
1202	
1175	
1142	
1128	
1241	
1187	
1144	
1118	
1115	
1181	
1075	
1183	
1177	
1072	
1159	
1143	
1191	
1159	
1150	
1119	
1112	
1155	
1205	
1175	
1093	
1160	
1136	
1182	
1180	
1145	
1220	
1182	
1211	
1179	
1170	
1187	
1183	
1132	
1154	
1110	
1136	
1114	
1199	
1184	
1134	
1171	
1127	
1128	
1136	
1122	
1176	
1115	
1136	
1130	
1064	
1112	
1172	
1145	
1112	
1203	
1132	
1133	
1203	
1205	
1157	
1127	
1168	
1139	
1170	
1150	
1130	
1213	
1116	
1144	
1117	
1177	
1119	
1163	
1116	
1152	
1078	
1132	
1155	
1163	
1149	
1166	
1151	
1125	
1107	
1101	
1099	
1173	
1114	
1143	
1132	
1085	
1096	
1141	
1151	
1130	
1060	
1133	
1135	
1083	
1089	
1086	
1167	
1117	
1089	
1143	
1121	
1117	
1159	
1149	
1157	
1088	
1147	
1080	
1103	
1105	
1100	
1150	
1112	
1144	
1124	
1140	
1076	
1084	
1152	
1145	
1112	
1035	
1121	
1106	
1158	
1094	
1160	
1141	
1104	
1078	
1104	
1094	
1174	
1064	
1078	
1119	
1143	
1159	
1147	
1048	
1124	
1062	
1056	
1138	
1158	
1091	
1100	
1105	
1140	
1116	
1142	
1072	
1076	
1083	
1211	
1120	
1047	
1034	
1057	
1108	
1078	
1085	
1115	
1091	
1114	
1117	
1070	
1064	
1144	
1167	
1113	
1061	
1068	
1130	
1147	
1060	
1057	
1074	
1064	
1094	
1096	
1068	
1055	
1142	
1064	
1095	
1058	
1086	
1040	
1105	
1108	
1067	
1063	
1099	
1086	
1079	
1054	
1061	
1081	
1069	
1122	
1066	
1081	
1023	
1086	
1031	
1120	
1062	
1059	
1039	
1039	
1074	
1057	
1111	
1040	
1087	
1048	
1089	
1089	
1080	
1096	
1073	
1071	
1035	
1086	
1058	
1047	
1098	
1062	
1054	
1057	
1051	
1036	
1055	
1071	
1037	
1019	
1016	
1093	
1031	
1032	
1083	
1076	
1051	
1018	
1065	
1029	
1040	
1093	
1085	
1059	
1089	
1113	
1054	
1047	
1055	
1035	
1102	
1035	
1028	
1037	
1009	
1056	
1065	
1039	
956	
1037	
970	
1003	
1095	
1001	
1069	
1062	
1055	
1051	
1070	
1024	
1058	
1032	
989	
1039	
1028	
1008	
1025	
1013	
1044	
1036	
989	
1012	
1014	
1013	
1009	
1020	
1007	
1069	
1045	
990	
1048	
949	
1025	
1058	
1085	
1000	
1073	
1015	
1012	
997	
1028	
1060	
964	
1122	
984	
1043	
1011	
989	
1023	
1000	
1081	
1002	
1054	
1069	
1002	
1014	
976	
1029	
1050	
1012	
1027	
1048	
1021	
1013	
971	
1035	
962	
1021	
975	
1009	
1068	
1033	
1032	
1008	
1038	
1031	
1026	
1049	
999	
985	
1017	
1032	
917	
1052	
1033	
961	
1015	
1050	
999	
968	
953	
1006	
979	
1039	
976	
939	
1049	
1015	
1012	
976	
1027	
980	
1023	
1008	
1013	
1016	
1021	
984	
1006	
1018	
949	
1032	
1010	
995	
965	
967	
1001	
960	
980	
1064	
1009	
1021	
984	
1026	
983	
1018	
958	
1021	
995	
1025	
991	
1038	
999	
1026	
1012	
1006	
957	
972	
1004	
999	
993	
1040	
993	
1017	
955	
955	
950	
975	
998	
977	
1040	
1006	
975	
1025	
959	
1001	
1011	
1000	
987	
940	
927	
964	
1007	
965	
997	
971	
995	
968	
981	
1013	
981	
992	
998	
990	
1001	
988	
993	
1003	
971	
1013	
952	
967	
965	
963	
1005	
960	
960	
1027	
965	
980	
965	
927	
1018	
953	
1007	
955	
995	
990	
1008	
970	
966	
999	
921	
1023	
987	
1000	
947	
976	
943	
1015	
978	
952	
979	
957	
990	
927	
1032	
940	
998	
959	
958	
959	
936	
1027	
970	
934	
982	
963	
996	
960	
965	
953	
911	
947	
897	
962	
947	
1000	
928	
942	
932	
974	
997	
910	
942	
949	
949	
916	
917	
940	
944	
961	
902	
923	
965	
941	
951	
1008	
952	
975	
936	
892	
930	
946	
968	
916	
916	
916	
914	
916	
913	
904	
924	
956	
926	
979	
914	
940	
965	
918	
950	
942	
902	
952	
907	
936	
946	
886	
962	
954	
968	
903	
930	
905	
927	
934	
950	
956	
925	
950	
953	
958	
962	
979	
951	
937	
946	
920	
928	
890	
964	
921	
959	
909	
872	
922	
972	
967	
947	
893	
925	
897	
897	
946	
923	
960	
877	
901	
896	
881	
915	
909	
897	
917	
913	
881	
968	
891	
896	
924	
911	
944	
958	
916	
886	
864	
903	
919	
857	
940	
964	
889	
922	
930	
907	
992	
890	
924	
879	
848	
930	
926	
880	
852	
935	
871	
937	
879	
907	
895	
885	
905	
862	
905	
956	
885	
906	
903	
960	
898	
902	
940	
916	
868	
895	
897	
954	
965	
933	
888	
893	
909	
858	
951	
876	
898	
942	
902	
915	
922	
905	
863	
895	
914	
971	
883	
921	
888	
857	
910	
902	
885	
879	
920	
911	
857	
853	
894	
947	
858	
878	
855	
845	
904	
863	
863	
921	
930	
902	
881	
865	
938	
872	
872	
876	
923	
808	
898	
909	
869	
864	
898	
921	
896	
891	
882	
921	
852	
849	
877	
868	
861	
869	
886	
834	
858	
843	
841	
861	
873	
849	
920	
889	
881	
939	
858	
882	
899	
871	
927	
887	
816	
882	
890	
858	
879	
942	
852	
853	
851	
841	
867	
895	
865	
890	
875	
889	
864	
791	
873	
879	
853	
860	
839	
860	
841	
903	
881	
902	
881	
945	
884	
879	
886	
851	
902	
850	
847	
891	
826	
837	
876	
912	
847	
864	
869	
872	
859	
870	
845	
851	
859	
828	
865	
854	
847	
918	
864	
783	
868	
875	
902	
837	
866	
849	
894	
920	
848	
864	
846	
854	
836	
836	
878	
872	
881	
886	
891	
891	
837	
875	
884	
872	
821	
852	
846	
832	
849	
879	
810	
791	
893	
834	
828	
881	
796	
787	
797	
884	
861	
857	
835	
850	
833	
892	
814	
829	
810	
764	
800	
859	
853	
837	
848	
835	
874	
889	
869	
872	
829	
855	
842	
830	
874	
849	
926	
838	
859	
824	
830	
836	
830	
815	
849	
845	
829	
859	
878	
772	
876	
847	
876	
826	
818	
808	
863	
854	
859	
823	
841	
862	
821	
813	
796	
786	
843	
770	
847	
871	
814	
819	
847	
833	
787	
835	
848	
801	
810	
835	
844	
812	
822	
838	
804	
813	
842	
810	
801	
860	
859	
871	
820	
856	
834	
827	
808	
801	
832	
779	
819	
807	
823	
851	
845	
827	
833	
807	
805	
822	
826	
788	
800	
797	
783	
822	
816	
822	
790	
783	
785	
804	
793	
808	
790	
838	
802	
816	
829	
799	
834	
830	
775	
792	
784	
832	
814	
841	
820	
825	
807	
840	
720	
754	
783	
846	
840	
838	
825	
775	
795	
805	
767	
771	
830	
783	
827	
783	
817	
813	
754	
810	
847	
818	
743	
841	
842	
742	
817	
761	
807	
747	
759	
862	
770	
785	
815	
787	
735	
791	
774	
764	
820	
785	
794	
770	
808	
845	
805	
781	
783	
776	
804	
764	
808	
752	
768	
780	
782	
802	
813	
771	
783	
751	
788	
822	
774	
811	
759	
829	
792	
744	
844	
795	
829	
765	
750	
829	
766	
800	
858	
804	
803	
802	
777	
784	
816	
772	
748	
789	
767	
767	
762	
747	
762	
777	
818	
758	
761	
797	
780	
806	
771	
793	
848	
817	
735	
749	
783	
828	
789	
778	
797	
841	
763	
823	
764	
780	
820	
780	
774	
769	
807	
763	
735	
799	
805	
762	
786	
780	
828	
785	
743	
807	
740	
739	
778	
785	
786	
770	
792	
757	
791	
807	
731	
780	
776	
777	
762	
812	
762	
753	
745	
729	
819	
742	
748	
793	
752	
780	
777	
767	
746	
756	
729	
769	
768	
779	
782	
768	
771	
770	
744	
746	
793	
757	
737	
707	
796	
780	
766	
787	
741	
800	
757	
763	
774	
758	
768	
744	
816	
737	
769	
756	
759	
754	
821	
750	
761	
767	
769	
829	
780	
721	
760	
724	
762	
754	
751	
750	
804	
790	
718	
748	
729	
735	
754	
780	
720	
717	
758	
742	
754	
757	
748	
704	
701	
810	
767	
733	
768	
724	
759	
736	
766	
754	
741	
718	
738	
733	
763	
760	
706	
787	
779	
713	
760	
738	
740	
779	
708	
798	
761	
715	
731	
761	
756	
718	
781	
757	
728	
791	
753	
699	
731	
705	
678	
746	
728	
706	
662	
708	
757	
735	
759	
759	
770	
763	
745	
725	
768	
813	
732	
725	
786	
781	
713	
787	
760	
734	
755	
746	
721	
780	
735	
736	
699	
696	
720	
752	
735	
743	
696	
701	
729	
710	
692	
715	
727	
718	
734	
745	
701	
733	
732	
755	
717	
750	
690	
758	
764	
690	
667	
726	
753	
754	
763	
696	
717	
727	
718	
716	
714	
753	
706	
717	
730	
696	
744	
681	
733	
729	
736	
755	
687	
669	
713	
676	
730	
683	
738	
707	
715	
762	
735	
713	
717	
690	
737	
686	
695	
707	
689	
705	
707	
718	
709	
739	
730	
708	
717	
680	
725	
736	
706	
689	
716	
704	
744	
742	
727	
749	
738	
737	
697	
719	
716	
718	
732	
734	
702	
757	
703	
710	
729	
712	
688	
662	
648	
690	
726	
722	
734	
743	
736	
712	
688	
715	
717	
735	
699	
697	
714	
678	
717	
685	
747	
706	
715	
689	
694	
703	
688	
726	
705	
743	
737	
692	
695	
723	
684	
678	
704	
736	
696	
747	
730	
719	
690	
686	
651	
712	
635	
687	
693	
698	
683	
712	
704	
693	
735	
673	
751	
775	
741	
690	
731	
684	
736	
717	
667	
661	
686	
746	
735	
629	
669	
692	
651	
683	
704	
696	
753	
682	
682	
694	
700	
694	
689	
722	
712	
726	
724	
720	
709	
634	
684	
686	
741	
696	
628	
686	
651	
649	
711	
681	
713	
728	
695	
703	
747	
684	
661	
675	
678	
672	
677	
720	
647	
690	
651	
732	
699	
664	
694	
689	
619	
665	
684	
730	
677	
650	
725	
690	
705	
719	
674	
676	
679	
685	
681	
689	
683	
669	
674	
692	
680	
673	
705	
655	
622	
641	
717	
687	
712	
677	
679	
636	
648	
637	
692	
664	
682	
681	
650	
740	
715	
689	
667	
663	
706	
652	
684	
717	
689	
727	
666	
719	
691	
660	
649	
694	
654	
641	
691	
643	
697	
653	
690	
667	
657	
638	
694	
728	
642	
649	
620	
660	
646	
669	
702	
680	
682	
667	
663	
676	
577	
690	
684	
712	
685	
657	
656	
676	
651	
627	
673	
718	
657	
655	
661	
618	
661	
682	
677	
690	
676	
697	
721	
668	
680	
642	
680	
663	
661	
626	
671	
664	
652	
622	
652	
698	
631	
668	
623	
669	
651	
650	
618	
630	
655	
650	
622	
694	
704	
698	
677	
640	
625	
672	
678	
703	
657	
653	
655	
661	
645	
661	
651	
664	
655	
648	
670	
713	
624	
664	
652	
642	
628	
665	
593	
655	
650	
678	
595	
676	
649	
700	
696	
635	
660	
653	
636	
653	
690	
662	
668	
654	
636	
628	
692	
688	
639	
644	
674	
642	
635	
614	
656	
653	
634	
674	
630	
677	
657	
646	
640	
657	
687	
638	
594	
634	
628	
666	
616	
635	
658	
629	
676	
659	
644	
624	
620	
611	
638	
699	
645	
687	
653	
665	
643	
618	
658	
653	
667	
676	
656	
623	
672	
657	
664	
665	
623	
624	
657	
632	
649	
636	
702	
563	
683	
620	
635	
615	
636	
631	
641	
633	
667	
633	
642	
648	
651	
620	
630	
640	
586	
687	
642	
643	
681	
638	
669	
651	
631	
617	
639	
676	
627	
637	
631	
649	
582	
663	
629	
639	
633	
673	
627	
631	
643	
606	
627	
654	
625	
620	
618	
622	
668	
619	
591	
613	
631	
612	
635	
645	
655	
588	
577	
625	
614	
616	
597	
600	
659	
650	
629	
643	
679	
612	
622	
645	
608	
600	
621	
604	
643	
581	
647	
621	
610	
631	
635	
657	
636	
673	
585	
613	
576	
611	
625	
582	
621	
666	
628	
608	
646	
617	
652	
642	
622	
614	
600	
645	
621	
632	
581	
575	
617	
624	
563	
631	
610	
596	
650	
620	
608	
628	
617	
605	
602	
602	
615	
565	
673	
633	
577	
621	
604	
633	
584	
640	
604	
592	
626	
627	
651	
615	
605	
624	
632	
619	
655	
622	
609	
606	
611	
575	
591	
613	
610	
622	
603	
579	
626	
584	
589	
626	
640	
587	
612	
636	
609	
563	
598	
619	
619	
611	
610	
608	
594	
580	
608	
598	
593	
631	
601	
586	
606	
610	
584	
599	
607	
624	
657	
552	
604	
605	
601	
604	
631	
632	
649	
623	
600	
635	
640	
609	
616	
613	
633	
628	
587	
588	
633	
574	
588	
584	
607	
596	
618	
638	
603	
624	
592	
606	
612	
627	
588	
610	
593	
584	
644	
591	
628	
590	
633	
574	
587	
630	
594	
596	
601	
575	
607	
612	
572	
651	
616	
609	
585	
576	
569	
572	
607	
549	
591	
580	
563	
588	
611	
588	
602	
609	
561	
606	
619	
604	
533	
569	
594	
601	
581	
549	
560	
602	
619	
592	
582	
582	
615	
645	
581	
614	
581	
572	
608	
580	
590	
600	
568	
578	
564	
611	
624	
591	
588	
582	
600	
580	
592	
589	
579	
570	
636	
585	
617	
599	
617	
596	
572	
587	
589	
592	
578	
564	
585	
588	
577	
588	
540	
583	
566	
562	
580	
574	
604	
624	
623	
549	
550	
558	
579	
620	
604	
568	
607	
614	
581	
603	
604	
588	
566	
624	
581	
575	
569	
558	
591	
644	
573	
580	
615	
576	
547	
562	
551	
578	
580	
592	
596	
615	
617	
624	
590	
576	
558	
596	
546	
569	
635	
522	
586	
544	
624	
614	
605	
616	
576	
649	
533	
568	
595	
563	
584	
584	
615	
534	
626	
507	
594	
606	
612	
579	
541	
584	
543	
596	
580	
584	
557	
583	
625	
561	
594	
521	
553	
586	
534	
580	
601	
566	
540	
594	
585	
548	
575	
565	
567	
526	
541	
551	
548	
554	
553	
558	
602	
550	
543	
595	
602	
571	
566	
559	
569	
562	
609	
536	
546	
613	
548	
565	
559	
576	
570	
544	
546	
545	
576	
563	
546	
597	
554	
533	
614	
554	
540	
585	
563	
586	
562	
576	
616	
564	
534	
572	
538	
592	
620	
557	
570	
558	
566	
549	
522	
564	
555	
617	
578	
535	
585	
604	
591	
568	
528	
572	
528	
567	
539	
577	
549	
553	
606	
575	
569	
576	
563	
543	
545	
554	
540	
567	
560	
582	
558	
556	
535	
573	
538	
561	
529	
559	
523	
605	
579	
573	
524	
538	
591	
553	
565	
579	
539	
544	
562	
592	
515	
548	
588	
556	
514	
547	
568	
563	
588	
598	
569	
554	
586	
557	
552	
572	
534	
558	
564	
504	
546	
531	
549	
541	
513	
563	
532	
549	
584	
507	
546	
549	
536	
567	
573	
536	
567	
539	
545	
522	
570	
555	
569	
542	
525	
545	
562	
563	
537	
543	
563	
561	
555	
548	
555	
569	
587	
580	
560	
562	
570	
546	
511	
527	
546	
558	
554	
549	
553	
534	
556	
518	
527	
526	
513	
553	
548	
519	
493	
593	
587	
552	
574	
558	
537	
559	
573	
500	
562	
493	
550	
529	
549	
531	
517	
524	
518	
549	
527	
518	
550	
502	
540	
523	
504	
533	
583	
527	
539	
497	
573	
537	
541	
499	
536	
533	
539	
573	
525	
554	
503	
502	
562	
531	
571	
506	
526	
492	
516	
565	
564	
548	
546	
540	
541	
594	
523	
559	
539	
544	
524	
541	
575	
535	
542	
520	
509	
541	
541	
532	
573	
547	
576	
570	
506	
548	
528	
561	
526	
514	
531	
512	
516	
539	
504	
541	
559	
520	
473	
521	
544	
489	
516	
505	
530	
581	
493	
527	
531	
515	
556	
497	
538	
571	
503	
545	
527	
534	
496	
544	
531	
541	
505	
516	
505	
504	
549	
502	
504	
557	
549	
580	
551	
532	
519	
532	
545	
537	
510	
538	
547	
547	
520	
546	
528	
508	
494	
550	
505	
509	
483	
436	
553	
493	
527	
503	
536	
521	
492	
526	
571	
545	
522	
521	
565	
505	
530	
508	
515	
554	
513	
510	
506	
572	
521	
544	
536	
512	
543	
513	
484	
527	
533	
541	
494	
515	
540	
512	
525	
499	
555	
517	
502	
540	
507	
518	
457	
495	
504	
526	
508	
536	
501	
538	
519	
493	
526	
495	
513	
526	
496	
543	
500	
546	
485	
499	
510	
506	
502	
495	
523	
513	
493	
486	
497	
541	
517	
499	
525	
513	
529	
468	
558	
549	
478	
526	
536	
509	
464	
531	
531	
504	
542	
530	
512	
503	
548	
512	
526	
525	
480	
508	
525	
516	
515	
542	
511	
497	
533	
496	
445	
513	
512	
471	
524	
499	
534	
500	
501	
489	
477	
512	
519	
490	
541	
509	
514	
494	
519	
522	
521	
516	
525	
525	
511	
498	
518	
533	
495	
533	
503	
546	
489	
527	
503	
475	
498	
494	
547	
513	
519	
549	
525	
512	
494	
490	
518	
528	
514	
487	
513	
494	
490	
541	
504	
500	
483	
498	
515	
544	
542	
522	
516	
530	
456	
507	
495	
492	
476	
519	
551	
472	
500	
544	
487	
477	
532	
497	
521	
482	
523	
486	
509	
496	
528	
531	
514	
498	
520	
483	
514	
540	
452	
502	
488	
548	
525	
505	
483	
530	
501	
467	
446	
457	
550	
503	
536	
479	
496	
485	
498	
451	
497	
482	
522	
483	
510	
483	
504	
479	
455	
490	
494	
509	
506	
504	
489	
508	
476	
491	
485	
518	
459	
471	
484	
504	
502	
501	
494	
482	
505	
526	
507	
490	
492	
472	
482	
522	
476	
508	
482	
505	
470	
489	
461	
506	
483	
495	
490	
477	
497	
502	
472	
487	
459	
499	
501	
447	
503	
423	
487	
500	
527	
489	
474	
478	
485	
458	
506	
490	
481	
486	
481	
466	
540	
478	
474	
505	
510	
485	
503	
493	
506	
487	
487	
496	
513	
521	
467	
458	
480	
501	
439	
490	
515	
481	
520	
476	
498	
464	
482	
496	
443	
497	
515	
513	
460	
481	
462	
490	
489	
457	
515	
459	
451	
480	
474	
503	
483	
494	
510	
469	
476	
523	
498	
433	
500	
483	
544	
494	
502	
468	
477	
486	
511	
490	
491	
493	
478	
477	
492	
521	
448	
461	
534	
473	
518	
457	
466	
460	
470	
515	
478	
484	
507	
503	
463	
484	
482	
492	
495	
467	
483	
480	
467	
506	
479	
447	
493	
452	
459	
484	
485	
462	
484	
449	
485	
447	
424	
514	
473	
463	
454	
457	
475	
488	
479	
509	
492	
479	
477	
447	
492	
463	
475	
487	
477	
453	
473	
478	
477	
512	
496	
448	
470	
427	
459	
484	
446	
509	
491	
501	
483	
521	
468	
472	
489	
472	
512	
469	
470	
450	
478	
461	
423	
506	
472	
447	
460	
464	
451	
454	
468	
459	
478	
483	
497	
437	
469	
467	
469	
480	
432	
463	
473	
474	
479	
466	
444	
470	
436	
446	
443	
496	
444	
469	
467	
470	
449	
435	
430	
490	
417	
452	
422	
486	
508	
482	
488	
486	
437	
460	
472	
458	
486	
496	
480	
459	
456	
435	
451	
513	
485	
460	
453	
504	
446	
489	
476	
460	
441	
476	
444	
469	
445	
455	
453	
437	
480	
474	
473	
423	
476	
450	
465	
423	
457	
456	
442	
480	
489	
455	
452	
436	
476	
443	
443	
464	
506	
462	
479	
444	
440	
461	
442	
463	
455	
436	
441	
479	
462	
489	
454	
475	
435	
502	
461	
431	
471	
470	
486	
469	
501	
445	
471	
440	
441	
484	
471	
444	
466	
450	
480	
433	
470	
427	
461	
486	
477	
419	
443	
442	
437	
430	
428	
434	
456	
448	
452	
475	
470	
464	
466	
452	
476	
453	
464	
458	
458	
459	
429	
421	
479	
494	
463	
482	
438	
464	
509	
466	
472	
483	
438	
422	
461	
411	
446	
498	
397	
456	
449	
436	
443	
470	
449	
445	
441	
461	
464	
411	
427	
467	
446	
496	
488	
465	
439	
461	
459	
470	
475	
454	
479	
443	
450	
409	
453	
437	
444	
471	
471	
437	
472	
458	
470	
456	
416	
455	
448	
452	
466	
439	
465	
467	
460	
445	
426	
454	
444	
441	
461	
446	
437	
420	
445	
415	
459	
432	
423	
471	
454	
431	
436	
468	
405	
446	
443	
446	
426	
447	
415	
439	
403	
441	
449	
442	
459	
438	
470	
480	
431	
421	
415	
435	
426	
472	
437	
415	
442	
436	
444	
443	
450	
439	
439	
447	
403	
409	
449	
406	
444	
394	
460	
445	
440	
439	
406	
417	
421	
419	
469	
422	
438	
422	
470	
438	
484	
465	
442	
437	
431	
461	
428	
441	
427	
450	
426	
437	
420	
427	
470	
472	
422	
454	
448	
468	
440	
439	
406	
439	
468	
428	
426	
437	
415	
412	
440	
437	
438	
455	
395	
431	
397	
419	
428	
421	
464	
428	
433	
430	
433	
421	
418	
400	
463	
435	
435	
441	
438	
416	
476	
439	
400	
409	
406	
422	
413	
403	
435	
436	
467	
380	
400	
425	
422	
431	
384	
450	
460	
450	
428	
436	
465	
464	
454	
434	
431	
436	
436	
394	
432	
413	
420	
399	
466	
422	
438	
441	
430	
414	
439	
414	
413	
432	
453	
445	
395	
418	
419	
402	
404	
392	
419	
423	
436	
458	
446	
401	
422	
412	
396	
431	
436	
419	
422	
443	
466	
445	
458	
412	
437	
410	
428	
400	
419	
444	
450	
443	
415	
432	
428	
451	
426	
424	
396	
444	
442	
417	
456	
382	
405	
425	
411	
452	
415	
428	
421	
419	
462	
406	
409	
405	
405	
445	
404	
411	
446	
384	
407	
412	
440	
391	
405	
460	
461	
400	
429	
425	
412	
401	
421	
441	
392	
456	
413	
396	
408	
399	
404	
445	
389	
425	
413	
387	
430	
418	
460	
413	
426	
408	
404	
421	
428	
365	
416	
439	
414	
428	
443	
436	
418	
437	
447	
403	
432	
398	
424	
443	
431	
410	
410	
426	
385	
378	
385	
389	
407	
427	
412	
405	
440	
425	
428	
422	
437	
423	
447	
432	
394	
408	
414	
417	
407	
383	
422	
400	
436	
431	
424	
347	
405	
397	
418	
414	
408	
428	
426	
419	
444	
424	
434	
433	
393	
380	
405	
400	
400	
408	
433	
374	
407	
402	
433	
377	
418	
430	
427	
391	
397	
439	
419	
406	
451	
430	
388	
412	
400	
422	
422	
385	
402	
418	
422	
405	
435	
395	
442	
387	
395	
398	
421	
411	
432	
406	
391	
423	
375	
390	
406	
393	
380	
390	
426	
433	
423	
409	
384	
419	
441	
419	
414	
418	
426	
419	
428	
399	
413	
390	
402	
401	
391	
395	
434	
400	
426	
394	
388	
408	
392	
414	
433	
434	
450	
410	
422	
409	
407	
402	
405	
395	
402	
406	
437	
427	
421	
409	
394	
393	
417	
409	
395	
398	
416	
368	
401	
417	
416	
406	
408	
426	
401	
383	
396	
414	
376	
365	
395	
384	
423	
396	
395	
386	
435	
367	
405	
384	
381	
406	
409	
410	
405	
401	
436	
415	
428	
391	
386	
443	
389	
357	
414	
376	
412	
407	
436	
379	
412	
415	
408	
380	
408	
386	
383	
398	
438	
386	
383	
411	
417	
407	
401	
415	
395	
398	
415	
401	
404	
362	
406	
403	
413	
386	
394	
371	
356	
401	
362	
407	
392	
353	
400	
385	
393	
438	
399	
410	
403	
378	
429	
416	
383	
382	
383	
435	
429	
397	
369	
386	
394	
387	
369	
421	
401	
398	
394	
391	
365	
374	
413	
390	
411	
365	
397	
398	
382	
397	
429	
391	
402	
399	
389	
409	
391	
356	
410	
404	
399	
414	
360	
423	
387	
400	
377	
385	
393	
415	
402	
407	
396	
356	
382	
404	
367	
378	
416	
377	
389	
414	
401	
410	
402	
401	
400	
402	
400	
402	
374	
361	
435	
376	
344	
395	
366	
422	
422	
374	
399	
400	
395	
385	
392	
380	
373	
384	
386	
367	
391	
352	
401	
387	
398	
388	
360	
369	
395	
407	
376	
379	
383	
354	
399	
391	
366	
404	
395	
395	
362	
347	
427	
380	
376	
379	
364	
385	
374	
389	
389	
379	
380	
356	
407	
396	
399	
378	
376	
389	
408	
376	
361	
399	
391	
383	
429	
398	
375	
425	
401	
391	
403	
404	
360	
405	
374	
401	
377	
356	
405	
400	
398	
351	
400	
360	
389	
393	
407	
386	
394	
408	
414	
376	
418	
430	
366	
372	
372	
365	
394	
365	
396	
366	
396	
390	
408	
385	
394	
409	
397	
347	
348	
405	
377	
408	
390	
378	
374	
360	
388	
379	
363	
401	
346	
381	
369	
397	
375	
365	
355	
370	
384	
403	
391	
365	
378	
407	
378	
396	
368	
373	
410	
383	
381	
374	
386	
394	
386	
397	
364	
406	
384	
389	
370	
343	
366	
384	
412	
377	
368	
386	
390	
376	
366	
386	
363	
336	
385	
354	
392	
380	
359	
393	
372	
390	
365	
344	
384	
357	
389	
357	
410	
377	
382	
364	
351	
377	
379	
376	
418	
392	
404	
351	
358	
388	
389	
383	
384	
354	
369	
371	
377	
355	
357	
352	
348	
436	
392	
386	
380	
378	
395	
386	
373	
355	
351	
395	
399	
356	
381	
403	
397	
339	
385	
361	
373	
383	
349	
370	
384	
380	
320	
395	
368	
379	
362	
384	
392	
333	
371	
383	
376	
365	
356	
384	
363	
357	
367	
388	
386	
374	
369	
357	
414	
364	
350	
358	
362	
376	
365	
381	
413	
389	
364	
406	
374	
356	
402	
340	
354	
354	
362	
369	
355	
394	
349	
368	
380	
388	
394	
411	
379	
405	
357	
410	
347	
355	
372	
422	
376	
381	
399	
351	
337	
393	
393	
411	
374	
378	
387	
366	
355	
388	
357	
366	
353	
345	
350	
397	
365	
368	
392	
403	
390	
361	
346	
404	
352	
366	
376	
370	
377	
380	
365	
367	
351	
385	
345	
356	
361	
351	
339	
373	
357	
380	
379	
395	
355	
371	
366	
407	
335	
406	
332	
385	
387	
358	
361	
356	
357	
369	
343	
375	
346	
354	
345	
351	
363	
351	
378	
379	
343	
386	
337	
349	
334	
367	
322	
363	
395	
344	
344	
362	
340	
373	
361	
363	
355	
329	
338	
346	
367	
363	
375	
356	
378	
361	
354	
343	
360	
344	
354	
354	
367	
328	
340	
358	
353	
318	
367	
378	
374	
343	
318	
362	
359	
374	
374	
339	
