#PicoHarp 300  Histogram Data			06/01/2022 02:56:38 PM
#channels per curve
62500
#display curve no.
0	
#memory block no.
0	
#ns/channel
0.0320	
#counts
9	
12	
16	
10	
9	
10	
14	
6	
11	
12	
8	
12	
12	
12	
16	
11	
17	
18	
11	
10	
19	
11	
12	
17	
6	
11	
9	
10	
15	
12	
22	
10	
16	
21	
8	
11	
17	
15	
12	
14	
15	
12	
15	
17	
16	
5	
9	
13	
16	
17	
16	
10	
9	
16	
19	
9	
15	
12	
9	
17	
13	
13	
13	
9	
12	
17	
7	
22	
13	
12	
13	
13	
11	
12	
17	
12	
17	
7	
10	
11	
10	
12	
11	
8	
10	
17	
13	
15	
18	
11	
20	
11	
19	
15	
12	
9	
14	
8	
11	
18	
19	
11	
14	
15	
15	
13	
8	
20	
9	
11	
11	
19	
13	
9	
12	
10	
11	
13	
11	
14	
14	
15	
14	
20	
24	
16	
15	
8	
11	
12	
17	
20	
12	
10	
13	
17	
14	
7	
6	
11	
16	
12	
16	
17	
9	
16	
12	
16	
15	
11	
11	
12	
18	
23	
15	
17	
11	
18	
13	
8	
10	
10	
15	
14	
9	
11	
21	
19	
13	
8	
13	
17	
9	
12	
10	
20	
8	
15	
14	
19	
10	
11	
17	
10	
8	
17	
18	
8	
13	
16	
18	
9	
9	
13	
11	
10	
13	
14	
10	
13	
10	
11	
11	
9	
8	
16	
11	
12	
15	
15	
13	
10	
13	
16	
11	
11	
11	
9	
9	
13	
15	
10	
16	
11	
13	
9	
15	
12	
15	
17	
11	
12	
9	
10	
18	
17	
12	
13	
15	
9	
7	
8	
9	
10	
20	
10	
12	
12	
7	
9	
13	
11	
10	
7	
15	
15	
10	
13	
12	
16	
9	
15	
13	
12	
12	
10	
14	
16	
14	
11	
17	
10	
19	
23	
16	
19	
14	
13	
18	
12	
10	
19	
17	
8	
11	
13	
14	
9	
5	
16	
8	
15	
19	
16	
15	
14	
5	
15	
11	
19	
12	
7	
14	
11	
7	
9	
9	
13	
14	
8	
9	
9	
11	
12	
8	
14	
11	
14	
17	
16	
7	
13	
10	
14	
9	
13	
9	
16	
11	
18	
9	
17	
11	
15	
12	
8	
13	
16	
13	
16	
15	
12	
11	
10	
10	
7	
18	
11	
9	
11	
7	
20	
14	
12	
6	
18	
14	
14	
15	
13	
14	
7	
24	
12	
10	
22	
12	
17	
19	
9	
18	
11	
14	
20	
13	
10	
18	
17	
11	
14	
17	
16	
14	
11	
15	
17	
6	
10	
15	
10	
11	
13	
12	
9	
12	
16	
14	
18	
6	
17	
11	
16	
10	
13	
18	
8	
21	
14	
13	
9	
13	
16	
9	
12	
15	
8	
16	
15	
6	
18	
4	
20	
15	
12	
13	
13	
16	
16	
16	
13	
19	
16	
9	
15	
10	
8	
12	
19	
9	
8	
16	
13	
12	
16	
19	
13	
15	
10	
8	
10	
13	
15	
15	
7	
16	
12	
18	
15	
16	
9	
17	
7	
6	
8	
14	
16	
11	
10	
14	
8	
18	
14	
19	
10	
12	
12	
18	
8	
12	
12	
15	
12	
17	
18	
11	
17	
7	
12	
16	
12	
13	
12	
15	
9	
9	
14	
5	
15	
13	
17	
11	
11	
8	
8	
12	
18	
16	
11	
12	
14	
9	
15	
18	
13	
17	
11	
6	
8	
19	
10	
12	
12	
17	
13	
12	
17	
14	
17	
10	
12	
16	
20	
8	
9	
11	
8	
12	
5	
12	
14	
10	
9	
14	
14	
18	
10	
13	
13	
14	
16	
16	
13	
14	
17	
23	
12	
7	
8	
2	
19	
17	
19	
10	
20	
10	
8	
19	
8	
8	
15	
12	
16	
11	
12	
8	
15	
17	
11	
9	
11	
16	
17	
11	
15	
13	
15	
19	
7	
10	
13	
8	
13	
10	
14	
14	
12	
13	
8	
7	
13	
14	
12	
20	
18	
14	
11	
10	
9	
8	
13	
14	
10	
12	
12	
12	
13	
13	
14	
13	
14	
10	
17	
18	
22	
21	
16	
12	
12	
13	
11	
15	
10	
16	
13	
9	
6	
13	
13	
18	
10	
8	
12	
6	
12	
17	
12	
12	
19	
11	
11	
18	
19	
13	
9	
12	
18	
14	
11	
14	
6	
13	
12	
13	
7	
6	
15	
9	
15	
10	
17	
17	
15	
14	
7	
18	
15	
8	
11	
10	
16	
9	
11	
12	
13	
13	
14	
17	
22	
15	
11	
8	
10	
8	
14	
19	
15	
7	
12	
17	
12	
22	
17	
10	
12	
15	
16	
10	
16	
9	
17	
18	
15	
10	
6	
17	
13	
18	
17	
8	
21	
9	
17	
10	
12	
14	
16	
9	
11	
19	
10	
14	
13	
11	
16	
13	
15	
12	
15	
10	
17	
15	
13	
18	
15	
7	
10	
8	
9	
9	
14	
14	
10	
11	
14	
10	
12	
11	
8	
17	
11	
9	
4	
12	
7	
11	
12	
12	
23	
15	
13	
12	
15	
10	
16	
13	
16	
10	
17	
14	
11	
19	
12	
11	
10	
16	
17	
8	
16	
10	
18	
14	
10	
14	
12	
16	
7	
14	
14	
12	
15	
11	
18	
15	
8	
13	
16	
7	
10	
8	
9	
14	
11	
15	
10	
14	
14	
11	
7	
16	
6	
12	
8	
11	
15	
13	
9	
12	
18	
12	
9	
18	
11	
15	
19	
14	
11	
18	
15	
14	
17	
13	
8	
16	
15	
6	
18	
8	
14	
17	
12	
16	
11	
9	
13	
17	
9	
9	
19	
13	
9	
11	
9	
9	
19	
11	
13	
15	
10	
10	
4	
16	
8	
13	
10	
13	
7	
12	
13	
18	
18	
15	
8	
17	
12	
15	
11	
17	
15	
10	
8	
14	
12	
10	
12	
9	
17	
14	
15	
8	
10	
15	
12	
20	
11	
13	
8	
14	
15	
18	
12	
12	
14	
16	
10	
13	
14	
14	
16	
15	
16	
8	
5	
16	
7	
11	
15	
13	
8	
15	
15	
14	
11	
20	
12	
10	
10	
10	
13	
7	
18	
19	
13	
18	
11	
14	
13	
15	
11	
15	
16	
17	
13	
16	
15	
14	
8	
14	
13	
12	
13	
10	
10	
19	
13	
17	
16	
15	
18	
19	
26	
21	
20	
23	
35	
29	
54	
53	
58	
80	
84	
104	
136	
159	
187	
273	
246	
310	
427	
453	
579	
687	
776	
820	
1029	
1141	
1366	
1432	
1589	
1719	
1843	
2077	
2209	
2416	
2502	
2709	
2900	
2945	
3051	
3192	
3271	
3428	
3491	
3550	
3628	
3716	
3839	
3792	
3850	
3931	
3927	
3882	
3962	
3960	
3967	
4023	
3924	
4131	
4043	
3954	
3959	
4076	
4089	
4018	
4044	
4225	
3881	
4040	
4059	
3937	
4123	
4050	
3913	
3949	
3911	
4012	
3902	
4125	
3931	
3939	
3940	
4058	
3970	
4012	
3916	
3983	
3883	
3922	
3870	
3869	
3911	
3848	
3806	
3894	
3910	
3931	
3903	
3886	
3758	
3882	
3831	
3987	
3791	
3892	
3789	
3920	
3828	
3758	
3823	
3880	
3865	
3836	
3784	
3758	
3822	
3785	
3818	
3792	
3646	
3779	
3689	
3774	
3807	
3754	
3728	
3697	
3835	
3683	
3783	
3679	
3717	
3724	
3632	
3605	
3706	
3731	
3634	
3690	
3772	
3602	
3734	
3703	
3641	
3786	
3599	
3640	
3674	
3610	
3650	
3614	
3599	
3572	
3648	
3726	
3648	
3676	
3651	
3629	
3626	
3551	
3615	
3678	
3579	
3579	
3556	
3643	
3610	
3582	
3594	
3488	
3603	
3538	
3561	
3611	
3583	
3483	
3600	
3563	
3510	
3590	
3553	
3524	
3608	
3529	
3512	
3519	
3538	
3475	
3663	
3543	
3445	
3470	
3552	
3463	
3515	
3481	
3454	
3562	
3564	
3399	
3615	
3634	
3555	
3592	
3592	
3580	
3457	
3434	
3547	
3598	
3483	
3437	
3498	
3505	
3421	
3431	
3499	
3495	
3534	
3400	
3502	
3435	
3488	
3426	
3424	
3394	
3361	
3403	
3510	
3356	
3418	
3421	
3357	
3456	
3451	
3469	
3401	
3438	
3390	
3417	
3373	
3358	
3391	
3488	
3318	
3484	
3428	
3534	
3426	
3358	
3344	
3367	
3400	
3395	
3364	
3450	
3440	
3345	
3371	
3337	
3222	
3290	
3310	
3363	
3325	
3279	
3370	
3277	
3277	
3305	
3339	
3302	
3448	
3303	
3225	
3360	
3285	
3372	
3226	
3340	
3264	
3323	
3290	
3280	
3268	
3201	
3246	
3234	
3302	
3326	
3298	
3367	
3252	
3174	
3315	
3361	
3315	
3292	
3215	
3265	
3231	
3319	
3305	
3298	
3197	
3311	
3200	
3271	
3360	
3285	
3193	
3242	
3216	
3241	
3278	
3354	
3266	
3199	
3298	
3233	
3219	
3325	
3212	
3320	
3117	
3240	
3206	
3232	
3211	
3138	
3259	
3146	
3250	
3154	
3197	
3214	
3153	
3169	
3162	
3227	
3215	
3129	
3161	
3191	
3164	
3167	
3086	
3165	
3185	
3152	
3175	
3122	
3126	
3156	
3145	
3139	
3120	
3141	
3099	
3162	
3210	
3038	
3211	
3176	
3050	
3100	
3171	
3101	
3180	
3220	
3072	
3128	
3047	
3067	
3116	
3035	
3140	
3029	
3075	
3210	
3189	
3220	
3147	
3141	
3060	
3071	
3002	
3110	
3193	
3123	
2962	
3137	
3094	
3103	
3089	
3056	
3028	
3030	
3036	
3025	
3043	
3037	
2975	
3098	
3067	
3057	
3088	
3099	
3038	
3150	
3043	
3024	
3077	
3108	
3096	
3038	
3061	
3015	
3040	
3132	
3038	
3027	
2967	
3017	
2924	
2980	
3048	
3040	
3013	
3026	
2999	
2982	
3074	
2988	
2947	
3022	
3006	
3062	
2882	
3001	
3070	
3069	
3063	
2993	
3082	
3004	
2998	
3023	
3008	
2954	
2940	
2905	
3042	
2959	
2898	
3018	
3004	
2944	
3029	
3060	
2969	
2949	
2908	
3012	
2931	
3021	
2897	
2928	
2987	
2941	
3015	
2901	
3028	
2883	
2922	
2927	
2907	
2989	
2961	
2959	
2972	
2907	
2873	
2892	
2988	
2900	
2907	
2979	
2920	
3015	
3029	
2909	
2875	
2870	
2859	
2751	
3057	
2954	
2846	
2934	
2847	
2768	
2989	
2904	
2932	
2918	
2925	
2841	
2903	
2904	
2863	
2876	
2922	
2917	
2788	
2846	
2828	
2955	
2831	
2857	
2809	
2802	
2836	
2841	
2825	
2721	
2851	
2920	
2910	
2753	
2924	
2757	
2887	
2791	
2866	
2884	
2798	
2791	
2817	
2821	
2849	
2827	
2815	
2867	
2826	
2842	
2908	
2815	
2865	
2900	
2828	
2861	
2811	
2859	
2807	
2810	
2817	
2836	
2755	
2884	
2812	
2804	
2777	
2765	
2903	
2853	
2786	
2792	
2753	
2874	
2806	
2744	
2797	
2715	
2826	
2802	
2750	
2752	
2851	
2767	
2780	
2857	
2831	
2769	
2714	
2684	
2785	
2754	
2783	
2798	
2705	
2753	
2728	
2627	
2813	
2692	
2670	
2730	
2757	
2733	
2704	
2687	
2760	
2740	
2855	
2746	
2721	
2845	
2799	
2815	
2765	
2726	
2742	
2703	
2693	
2679	
2741	
2660	
2690	
2789	
2722	
2716	
2557	
2758	
2778	
2675	
2724	
2624	
2665	
2735	
2791	
2642	
2667	
2680	
2620	
2750	
2612	
2634	
2714	
2692	
2659	
2725	
2678	
2827	
2574	
2659	
2698	
2622	
2668	
2721	
2691	
2653	
2621	
2617	
2700	
2668	
2628	
2648	
2722	
2718	
2684	
2691	
2750	
2654	
2715	
2647	
2623	
2578	
2623	
2703	
2643	
2684	
2691	
2721	
2740	
2654	
2680	
2631	
2527	
2703	
2612	
2649	
2592	
2668	
2642	
2629	
2623	
2658	
2649	
2683	
2572	
2541	
2652	
2604	
2679	
2636	
2644	
2633	
2574	
2560	
2626	
2571	
2530	
2611	
2649	
2668	
2582	
2565	
2583	
2634	
2537	
2644	
2553	
2509	
2607	
2507	
2657	
2580	
2566	
2628	
2608	
2512	
2551	
2579	
2644	
2592	
2579	
2595	
2559	
2615	
2648	
2619	
2602	
2537	
2572	
2710	
2545	
2640	
2574	
2551	
2601	
2668	
2497	
2466	
2596	
2518	
2519	
2574	
2530	
2562	
2641	
2478	
2504	
2594	
2446	
2549	
2593	
2401	
2457	
2488	
2616	
2567	
2442	
2537	
2464	
2515	
2499	
2487	
2477	
2532	
2570	
2544	
2500	
2513	
2575	
2396	
2478	
2562	
2519	
2514	
2461	
2480	
2605	
2437	
2549	
2474	
2484	
2436	
2458	
2513	
2408	
2550	
2555	
2500	
2472	
2543	
2464	
2612	
2508	
2472	
2574	
2515	
2482	
2493	
2442	
2411	
2439	
2522	
2494	
2478	
2522	
2507	
2481	
2461	
2362	
2510	
2376	
2393	
2436	
2484	
2532	
2498	
2465	
2536	
2458	
2476	
2455	
2521	
2353	
2364	
2415	
2441	
2463	
2431	
2488	
2583	
2439	
2391	
2426	
2420	
2489	
2408	
2363	
2443	
2469	
2319	
2482	
2421	
2425	
2479	
2474	
2465	
2464	
2436	
2424	
2511	
2444	
2415	
2459	
2524	
2453	
2491	
2507	
2554	
2426	
2395	
2449	
2398	
2434	
2430	
2420	
2405	
2376	
2406	
2335	
2455	
2483	
2388	
2391	
2432	
2332	
2464	
2315	
2417	
2425	
2440	
2393	
2351	
2394	
2440	
2313	
2375	
2401	
2383	
2369	
2380	
2451	
2410	
2366	
2275	
2366	
2443	
2423	
2370	
2298	
2326	
2447	
2368	
2386	
2465	
2349	
2352	
2419	
2401	
2317	
2358	
2351	
2417	
2399	
2335	
2396	
2249	
2319	
2373	
2364	
2376	
2366	
2344	
2391	
2294	
2408	
2327	
2326	
2352	
2282	
2358	
2305	
2330	
2376	
2273	
2431	
2382	
2371	
2349	
2336	
2407	
2310	
2266	
2350	
2322	
2312	
2398	
2369	
2354	
2275	
2324	
2302	
2304	
2293	
2281	
2326	
2392	
2297	
2381	
2252	
2306	
2337	
2320	
2268	
2354	
2326	
2238	
2241	
2364	
2298	
2288	
2339	
2221	
2299	
2304	
2270	
2274	
2294	
2237	
2196	
2334	
2348	
2383	
2275	
2269	
2233	
2295	
2214	
2361	
2298	
2312	
2291	
2287	
2370	
2280	
2380	
2299	
2271	
2319	
2251	
2267	
2249	
2302	
2244	
2292	
2234	
2235	
2212	
2233	
2240	
2295	
2270	
2143	
2261	
2289	
2253	
2240	
2184	
2302	
2257	
2257	
2239	
2313	
2288	
2177	
2236	
2261	
2268	
2176	
2236	
2242	
2250	
2293	
2250	
2130	
2253	
2252	
2231	
2258	
2253	
2235	
2173	
2228	
2179	
2348	
2179	
2276	
2252	
2225	
2210	
2158	
2219	
2256	
2269	
2186	
2268	
2204	
2149	
2262	
2374	
2166	
2200	
2161	
2233	
2196	
2211	
2228	
2177	
2209	
2166	
2207	
2216	
2228	
2177	
2242	
2221	
2264	
2157	
2200	
2235	
2156	
2131	
2226	
2141	
2168	
2170	
2163	
2217	
2130	
2155	
2208	
2116	
2210	
2278	
2119	
2175	
2129	
2200	
2185	
2188	
2268	
2189	
2192	
2172	
2196	
2146	
2174	
2195	
2184	
2179	
2312	
2162	
2191	
2125	
2198	
2042	
2241	
2129	
2140	
2211	
2062	
2056	
2158	
2123	
2165	
2191	
2080	
2146	
2126	
2115	
2213	
2093	
2040	
2125	
2121	
2135	
2107	
2122	
2123	
2081	
2080	
2143	
2199	
2215	
2165	
2063	
2031	
2035	
2154	
2168	
2112	
2153	
2168	
2131	
2043	
2160	
2139	
2199	
2146	
2145	
2062	
2156	
2056	
2059	
2194	
2048	
2111	
2029	
2111	
2099	
2114	
2018	
2179	
2062	
2086	
2139	
2121	
2118	
2089	
2114	
2121	
2153	
2065	
2030	
2133	
2137	
2110	
2155	
2182	
2126	
2089	
2086	
2075	
2114	
2119	
2113	
2026	
2052	
2044	
2078	
2077	
2099	
2089	
2057	
2127	
2031	
2100	
2129	
2102	
2002	
1947	
2075	
2001	
2080	
2124	
2072	
1985	
2067	
2097	
2116	
2114	
2017	
2053	
2101	
2026	
2101	
2071	
2087	
2065	
1977	
2069	
2028	
2021	
2091	
2025	
2079	
2113	
2018	
2074	
2094	
1981	
2076	
2068	
2012	
2049	
2041	
2082	
2029	
1969	
1978	
2147	
2042	
2073	
2079	
2085	
2122	
2041	
2015	
2032	
1996	
1974	
2009	
1986	
2071	
2048	
1976	
2028	
2003	
2055	
2002	
2028	
2047	
2016	
1998	
2018	
2086	
2062	
2048	
1978	
2002	
1976	
2049	
2039	
1964	
2081	
2042	
2030	
2020	
1907	
1972	
1933	
2023	
2000	
1979	
1955	
1915	
2076	
2000	
2008	
1997	
2024	
2025	
2050	
1993	
2043	
1947	
2103	
2023	
2048	
2058	
1962	
1991	
2036	
2003	
1994	
2001	
1990	
1958	
1963	
2071	
1972	
2038	
2019	
1949	
2021	
2015	
1917	
1995	
1941	
1934	
2030	
2008	
2017	
1941	
1973	
1961	
2020	
1905	
1979	
1972	
1901	
1904	
1990	
2004	
1917	
1887	
1898	
1893	
1992	
1960	
2000	
1993	
1891	
1950	
1887	
1953	
1952	
1930	
1985	
1979	
1970	
1994	
1908	
1916	
1993	
2016	
1945	
1963	
1955	
1959	
1882	
1967	
1907	
1944	
1998	
1943	
2011	
1955	
1928	
1909	
2023	
1921	
1930	
1940	
1941	
1989	
2008	
1929	
2033	
1971	
1949	
1955	
1890	
1870	
1931	
1864	
2021	
1821	
1966	
1884	
1864	
1892	
2018	
1876	
1904	
1949	
1977	
1807	
1884	
1901	
1868	
1920	
1959	
1925	
1953	
1848	
1930	
1893	
1881	
1883	
1822	
1918	
1910	
1913	
1932	
1865	
1927	
1932	
1804	
1937	
1894	
1870	
1831	
1835	
1872	
1999	
1846	
1933	
1858	
1935	
1864	
1874	
1904	
1876	
1845	
1870	
1860	
1911	
1854	
1915	
1878	
1879	
1951	
1850	
1878	
1968	
1928	
1838	
1878	
1924	
1855	
1895	
1862	
1811	
1854	
1888	
1851	
1819	
1839	
1896	
1866	
1914	
1839	
1861	
1846	
1869	
1848	
1870	
1882	
1793	
1885	
1911	
1919	
1814	
1879	
1841	
1870	
1779	
1852	
1881	
1817	
1934	
1820	
1852	
1841	
1874	
1849	
1846	
1861	
1842	
1893	
1866	
1863	
1879	
1838	
1854	
1805	
1874	
1864	
1839	
1802	
1808	
1803	
1912	
1808	
1791	
1818	
1799	
1817	
1793	
1902	
1775	
1821	
1773	
1906	
1869	
1846	
1870	
1846	
1834	
1832	
1797	
1840	
1793	
1815	
1830	
1861	
1766	
1801	
1842	
1825	
1787	
1863	
1790	
1825	
1840	
1798	
1864	
1801	
1853	
1823	
1845	
1747	
1810	
1844	
1853	
1777	
1782	
1813	
1910	
1774	
1814	
1810	
1765	
1852	
1837	
1828	
1870	
1794	
1870	
1760	
1792	
1786	
1779	
1818	
1837	
1741	
1753	
1768	
1795	
1813	
1809	
1830	
1748	
1887	
1807	
1780	
1846	
1738	
1740	
1783	
1828	
1781	
1837	
1675	
1772	
1764	
1804	
1783	
1771	
1797	
1796	
1874	
1751	
1720	
1763	
1788	
1801	
1766	
1801	
1717	
1779	
1778	
1819	
1849	
1836	
1776	
1790	
1729	
1731	
1832	
1759	
1740	
1800	
1782	
1822	
1756	
1739	
1715	
1779	
1801	
1707	
1759	
1765	
1751	
1747	
1789	
1687	
1757	
1830	
1770	
1717	
1739	
1774	
1832	
1713	
1771	
1748	
1714	
1737	
1794	
1713	
1771	
1779	
1625	
1731	
1777	
1779	
1801	
1798	
1736	
1752	
1847	
1757	
1678	
1766	
1799	
1761	
1781	
1658	
1727	
1675	
1785	
1707	
1707	
1765	
1728	
1734	
1688	
1702	
1702	
1701	
1838	
1722	
1742	
1688	
1681	
1769	
1783	
1728	
1724	
1771	
1714	
1666	
1673	
1683	
1679	
1717	
1689	
1726	
1744	
1685	
1737	
1738	
1680	
1733	
1740	
1679	
1646	
1674	
1697	
1749	
1710	
1685	
1694	
1718	
1632	
1675	
1726	
1688	
1607	
1706	
1680	
1683	
1700	
1715	
1686	
1737	
1702	
1659	
1673	
1742	
1690	
1672	
1763	
1742	
1699	
1653	
1725	
1711	
1681	
1651	
1630	
1668	
1682	
1680	
1704	
1708	
1773	
1686	
1713	
1709	
1707	
1697	
1684	
1724	
1681	
1663	
1712	
1681	
1691	
1718	
1672	
1712	
1691	
1665	
1689	
1664	
1679	
1613	
1717	
1699	
1738	
1663	
1721	
1707	
1685	
1694	
1771	
1680	
1620	
1698	
1670	
1724	
1733	
1701	
1646	
1659	
1698	
1640	
1669	
1624	
1705	
1647	
1689	
1637	
1619	
1606	
1690	
1584	
1713	
1680	
1697	
1707	
1745	
1682	
1639	
1677	
1671	
1711	
1566	
1688	
1567	
1691	
1631	
1620	
1552	
1625	
1674	
1650	
1613	
1681	
1600	
1591	
1732	
1590	
1603	
1612	
1653	
1703	
1599	
1663	
1602	
1639	
1602	
1737	
1581	
1701	
1645	
1559	
1636	
1622	
1652	
1633	
1604	
1611	
1653	
1634	
1672	
1662	
1530	
1578	
1608	
1626	
1555	
1623	
1604	
1679	
1641	
1591	
1719	
1653	
1665	
1617	
1650	
1635	
1604	
1563	
1635	
1673	
1589	
1605	
1612	
1592	
1613	
1633	
1628	
1639	
1626	
1658	
1624	
1623	
1669	
1618	
1600	
1590	
1589	
1651	
1700	
1590	
1607	
1526	
1610	
1657	
1568	
1615	
1596	
1546	
1603	
1579	
1612	
1567	
1626	
1514	
1547	
1618	
1563	
1590	
1597	
1658	
1561	
1602	
1571	
1640	
1591	
1559	
1585	
1584	
1551	
1612	
1662	
1660	
1598	
1563	
1526	
1630	
1544	
1530	
1544	
1527	
1568	
1587	
1597	
1656	
1624	
1655	
1528	
1544	
1572	
1622	
1516	
1517	
1661	
1588	
1582	
1527	
1603	
1518	
1509	
1601	
1542	
1522	
1494	
1552	
1595	
1524	
1572	
1522	
1539	
1477	
1538	
1590	
1616	
1591	
1568	
1595	
1432	
1535	
1561	
1627	
1509	
1561	
1607	
1532	
1630	
1531	
1595	
1573	
1621	
1556	
1512	
1569	
1625	
1477	
1597	
1571	
1520	
1559	
1521	
1541	
1559	
1606	
1556	
1490	
1590	
1545	
1517	
1497	
1587	
1544	
1563	
1563	
1534	
1529	
1617	
1486	
1461	
1543	
1545	
1516	
1480	
1561	
1458	
1582	
1483	
1532	
1507	
1558	
1576	
1522	
1531	
1578	
1535	
1517	
1509	
1493	
1578	
1519	
1557	
1562	
1556	
1543	
1482	
1529	
1530	
1604	
1566	
1528	
1481	
1505	
1533	
1564	
1520	
1496	
1471	
1645	
1558	
1545	
1473	
1480	
1488	
1515	
1552	
1539	
1513	
1495	
1536	
1467	
1524	
1471	
1481	
1479	
1594	
1506	
1528	
1437	
1460	
1487	
1502	
1522	
1547	
1506	
1483	
1492	
1483	
1533	
1541	
1504	
1512	
1500	
1524	
1530	
1478	
1504	
1510	
1500	
1498	
1427	
1496	
1517	
1545	
1490	
1532	
1470	
1519	
1515	
1486	
1513	
1576	
1509	
1469	
1466	
1461	
1516	
1427	
1559	
1517	
1459	
1478	
1508	
1478	
1483	
1530	
1499	
1509	
1481	
1565	
1481	
1476	
1513	
1516	
1403	
1450	
1549	
1455	
1439	
1469	
1418	
1507	
1544	
1390	
1480	
1504	
1459	
1554	
1462	
1560	
1407	
1490	
1420	
1428	
1445	
1409	
1446	
1475	
1490	
1473	
1447	
1430	
1457	
1442	
1468	
1522	
1466	
1501	
1512	
1502	
1533	
1491	
1499	
1545	
1433	
1459	
1415	
1405	
1497	
1485	
1459	
1437	
1470	
1459	
1468	
1398	
1457	
1454	
1420	
1427	
1418	
1493	
1488	
1426	
1444	
1484	
1451	
1442	
1406	
1450	
1450	
1452	
1525	
1473	
1470	
1467	
1498	
1447	
1395	
1511	
1429	
1417	
1409	
1462	
1468	
1427	
1438	
1473	
1475	
1444	
1446	
1440	
1427	
1468	
1469	
1432	
1460	
1459	
1402	
1460	
1494	
1436	
1451	
1472	
1407	
1467	
1349	
1442	
1462	
1357	
1367	
1401	
1414	
1402	
1392	
1471	
1457	
1402	
1392	
1431	
1466	
1470	
1385	
1381	
1360	
1401	
1435	
1400	
1403	
1445	
1400	
1410	
1359	
1472	
1424	
1461	
1391	
1435	
1468	
1398	
1439	
1382	
1366	
1372	
1404	
1419	
1392	
1397	
1395	
1437	
1325	
1434	
1420	
1435	
1348	
1332	
1389	
1449	
1418	
1402	
1345	
1423	
1412	
1382	
1374	
1375	
1402	
1461	
1365	
1372	
1401	
1417	
1381	
1350	
1390	
1477	
1480	
1399	
1336	
1411	
1390	
1401	
1408	
1403	
1449	
1373	
1391	
1387	
1390	
1345	
1377	
1375	
1403	
1395	
1399	
1412	
1369	
1356	
1306	
1415	
1312	
1323	
1417	
1363	
1378	
1373	
1388	
1321	
1387	
1365	
1365	
1433	
1434	
1341	
1368	
1401	
1361	
1423	
1436	
1399	
1419	
1328	
1352	
1448	
1357	
1361	
1333	
1374	
1356	
1370	
1383	
1385	
1371	
1314	
1358	
1456	
1295	
1366	
1383	
1326	
1400	
1413	
1370	
1399	
1332	
1337	
1286	
1332	
1438	
1448	
1345	
1379	
1342	
1411	
1359	
1285	
1416	
1354	
1375	
1344	
1357	
1310	
1385	
1365	
1287	
1325	
1374	
1414	
1339	
1322	
1363	
1391	
1365	
1439	
1400	
1360	
1342	
1300	
1343	
1373	
1318	
1346	
1380	
1315	
1331	
1434	
1413	
1356	
1350	
1407	
1320	
1370	
1343	
1380	
1262	
1313	
1363	
1289	
1400	
1351	
1378	
1373	
1334	
1414	
1314	
1287	
1293	
1416	
1360	
1326	
1363	
1322	
1376	
1321	
1326	
1363	
1341	
1342	
1306	
1303	
1398	
1374	
1403	
1332	
1328	
1318	
1311	
1324	
1356	
1362	
1314	
1336	
1307	
1384	
1333	
1329	
1354	
1329	
1365	
1339	
1330	
1266	
1333	
1371	
1280	
1372	
1352	
1320	
1363	
1285	
1356	
1324	
1334	
1342	
1362	
1349	
1355	
1328	
1295	
1328	
1374	
1290	
1305	
1284	
1326	
1352	
1373	
1362	
1296	
1327	
1336	
1292	
1322	
1381	
1303	
1359	
1325	
1351	
1252	
1247	
1303	
1410	
1340	
1308	
1276	
1309	
1319	
1337	
1262	
1307	
1258	
1326	
1294	
1318	
1340	
1391	
1328	
1311	
1296	
1327	
1366	
1324	
1358	
1265	
1331	
1253	
1255	
1391	
1336	
1285	
1354	
1282	
1303	
1290	
1316	
1285	
1317	
1362	
1254	
1290	
1288	
1310	
1262	
1308	
1204	
1253	
1354	
1268	
1258	
1314	
1256	
1258	
1300	
1285	
1224	
1343	
1296	
1276	
1260	
1266	
1234	
1270	
1260	
1297	
1265	
1301	
1319	
1273	
1255	
1326	
1308	
1258	
1242	
1279	
1253	
1300	
1274	
1248	
1364	
1276	
1287	
1320	
1279	
1309	
1280	
1316	
1328	
1311	
1259	
1326	
1319	
1282	
1267	
1242	
1226	
1307	
1239	
1255	
1226	
1283	
1276	
1234	
1355	
1190	
1257	
1272	
1301	
1270	
1326	
1245	
1326	
1297	
1301	
1281	
1294	
1273	
1302	
1224	
1274	
1257	
1269	
1283	
1281	
1219	
1281	
1228	
1325	
1279	
1291	
1291	
1241	
1284	
1219	
1259	
1252	
1279	
1249	
1245	
1214	
1307	
1209	
1248	
1304	
1258	
1252	
1296	
1255	
1193	
1221	
1231	
1244	
1241	
1256	
1267	
1231	
1247	
1296	
1268	
1233	
1232	
1193	
1307	
1247	
1214	
1271	
1238	
1262	
1176	
1242	
1212	
1251	
1315	
1290	
1235	
1315	
1247	
1274	
1254	
1166	
1206	
1206	
1242	
1231	
1265	
1219	
1283	
1265	
1201	
1256	
1254	
1246	
1188	
1307	
1234	
1225	
1174	
1169	
1220	
1301	
1201	
1190	
1221	
1247	
1260	
1258	
1238	
1170	
1275	
1179	
1277	
1201	
1244	
1255	
1162	
1231	
1235	
1236	
1273	
1224	
1223	
1185	
1173	
1182	
1216	
1198	
1268	
1273	
1247	
1244	
1213	
1229	
1257	
1272	
1280	
1168	
1247	
1212	
1181	
1281	
1238	
1209	
1253	
1268	
1251	
1226	
1225	
1175	
1212	
1257	
1147	
1209	
1240	
1181	
1211	
1201	
1218	
1174	
1240	
1245	
1210	
1198	
1184	
1197	
1243	
1177	
1275	
1235	
1218	
1215	
1274	
1183	
1239	
1182	
1176	
1225	
1164	
1264	
1253	
1198	
1252	
1168	
1257	
1169	
1200	
1176	
1224	
1189	
1184	
1256	
1203	
1208	
1195	
1258	
1180	
1158	
1183	
1149	
1223	
1150	
1137	
1209	
1167	
1187	
1226	
1176	
1184	
1170	
1176	
1172	
1203	
1150	
1200	
1201	
1206	
1221	
1258	
1205	
1196	
1227	
1207	
1160	
1176	
1238	
1162	
1195	
1180	
1212	
1159	
1206	
1145	
1190	
1132	
1146	
1234	
1123	
1159	
1192	
1238	
1195	
1166	
1229	
1175	
1220	
1183	
1176	
1228	
1229	
1168	
1191	
1173	
1230	
1174	
1196	
1107	
1181	
1194	
1181	
1143	
1183	
1137	
1162	
1199	
1180	
1122	
1201	
1137	
1183	
1164	
1134	
1182	
1189	
1189	
1153	
1186	
1162	
1171	
1169	
1237	
1208	
1210	
1241	
1184	
1197	
1108	
1220	
1119	
1182	
1259	
1185	
1193	
1178	
1196	
1203	
1088	
1223	
1128	
1138	
1133	
1137	
1188	
1191	
1160	
1127	
1131	
1163	
1170	
1155	
1133	
1135	
1214	
1211	
1122	
1145	
1181	
1169	
1161	
1166	
1129	
1173	
1189	
1165	
1153	
1199	
1221	
1127	
1142	
1187	
1169	
1129	
1090	
1156	
1167	
1174	
1104	
1159	
1175	
1193	
1151	
1160	
1151	
1146	
1190	
1171	
1167	
1173	
1185	
1091	
1148	
1127	
1223	
1148	
1108	
1159	
1145	
1127	
1160	
1160	
1128	
1209	
1165	
1126	
1191	
1163	
1091	
1179	
1135	
1174	
1142	
1132	
1147	
1170	
1156	
1135	
1143	
1143	
1124	
1142	
1157	
1145	
1100	
1166	
1076	
1097	
1086	
1131	
1098	
1143	
1155	
1143	
1173	
1169	
1117	
1177	
1095	
1103	
1115	
1203	
1157	
1111	
1133	
1139	
1081	
1155	
1114	
1203	
1107	
1146	
1097	
1198	
1162	
1144	
1168	
1130	
1111	
1123	
1148	
1141	
1107	
1150	
1148	
1138	
1118	
1129	
1139	
1157	
1181	
1180	
1106	
1124	
1177	
1093	
1130	
1141	
1101	
1115	
1159	
1153	
1124	
1084	
1115	
1139	
1079	
1105	
1133	
1120	
1071	
1102	
1135	
1150	
1103	
1146	
1110	
1131	
1141	
1148	
1107	
1071	
1079	
1085	
1113	
1150	
1168	
1051	
1127	
1134	
1180	
1111	
1171	
1092	
1093	
1089	
1091	
1133	
1114	
1153	
1085	
1034	
1169	
1090	
1168	
1209	
1140	
1137	
1084	
1118	
1087	
1104	
1095	
1081	
1112	
1080	
1086	
1133	
1061	
1144	
1138	
1156	
1138	
1091	
1089	
1063	
1030	
1127	
1077	
1149	
1113	
1122	
1158	
1177	
1067	
1072	
1131	
1114	
1099	
1047	
1090	
1063	
1046	
1102	
1090	
1136	
1144	
1150	
1163	
1091	
1098	
1106	
1100	
1102	
1087	
1120	
1044	
1130	
1178	
1098	
1033	
1074	
1059	
1007	
1083	
1020	
1125	
1071	
1081	
1097	
1077	
1137	
1052	
1085	
1103	
1103	
1129	
1082	
1087	
1039	
1114	
1135	
1100	
1081	
1044	
1142	
1134	
1111	
1127	
1066	
1034	
1048	
1100	
1098	
1135	
1146	
1104	
1061	
1107	
1103	
1045	
1054	
1094	
1142	
1099	
1076	
1059	
1003	
1158	
1018	
1081	
1091	
1048	
1111	
1080	
1069	
1062	
1124	
1079	
1087	
1091	
1069	
1091	
1027	
1152	
1097	
1126	
1093	
1042	
1096	
1004	
1119	
1088	
1111	
1075	
1078	
1033	
1049	
1144	
1091	
1081	
1063	
1100	
1031	
1135	
1003	
1089	
1096	
1041	
1048	
1114	
1094	
1061	
1155	
1092	
1036	
1125	
1072	
1070	
1046	
1114	
1065	
1050	
1100	
1028	
1042	
1046	
1037	
1031	
1095	
1117	
1071	
1143	
1071	
1085	
1092	
1133	
1085	
1012	
1029	
993	
1060	
1078	
1100	
1078	
1011	
1106	
1039	
1037	
1060	
1001	
1085	
1093	
1088	
1010	
1078	
1136	
1020	
1047	
1070	
1086	
1041	
1058	
1005	
1048	
1075	
1119	
1032	
1046	
1046	
1076	
1064	
1032	
1055	
1079	
1076	
1049	
1021	
1076	
1057	
1063	
984	
1078	
1028	
1022	
1016	
1050	
1079	
1002	
1025	
1087	
1075	
1039	
1063	
1101	
1032	
1083	
1070	
1064	
1091	
1009	
1021	
1079	
1044	
1033	
1012	
1084	
1038	
1007	
1028	
1079	
1017	
1060	
1081	
1080	
1072	
1088	
1080	
1027	
1026	
1033	
1020	
1000	
1061	
1049	
1027	
1099	
1076	
1032	
1096	
1064	
1036	
1039	
1062	
1039	
1052	
1019	
985	
1073	
990	
1012	
1009	
1028	
998	
1111	
1012	
1017	
984	
1087	
1037	
1032	
1096	
1021	
1088	
1041	
1036	
981	
1013	
1035	
1032	
1003	
1043	
1029	
1060	
978	
990	
1071	
996	
1053	
1007	
1021	
976	
1036	
1013	
1094	
995	
1016	
1017	
1011	
952	
1030	
1030	
1013	
1001	
1052	
1057	
983	
973	
1038	
1059	
1030	
1012	
1082	
1005	
1053	
1005	
1025	
980	
1016	
1045	
1067	
1042	
983	
1047	
1048	
1114	
1055	
1022	
1039	
954	
956	
1067	
1040	
1097	
979	
1027	
1026	
1004	
1041	
1080	
1003	
1041	
1007	
1054	
1049	
1024	
1019	
999	
1001	
1009	
978	
1029	
1013	
1012	
988	
1053	
1037	
1074	
1054	
1003	
1000	
1062	
961	
1084	
1027	
950	
1007	
978	
1030	
995	
982	
983	
1043	
1039	
1025	
1072	
975	
975	
996	
1026	
951	
989	
911	
988	
973	
1052	
981	
983	
972	
964	
991	
956	
937	
1056	
980	
983	
990	
1047	
986	
995	
1008	
990	
975	
1013	
1003	
986	
926	
962	
994	
987	
930	
1013	
1041	
1014	
1016	
966	
966	
989	
1009	
1020	
1023	
993	
968	
1004	
974	
991	
1002	
961	
983	
992	
1069	
966	
982	
1023	
974	
931	
928	
954	
931	
990	
943	
966	
993	
950	
990	
1003	
980	
1024	
987	
1002	
1014	
945	
1059	
1019	
993	
978	
1014	
938	
1012	
1007	
995	
943	
970	
988	
988	
1006	
984	
947	
917	
990	
980	
955	
970	
944	
973	
975	
958	
989	
974	
961	
925	
940	
968	
992	
1034	
950	
961	
997	
981	
996	
997	
999	
934	
982	
977	
996	
926	
1061	
1002	
930	
950	
971	
989	
1005	
987	
972	
984	
1031	
993	
943	
991	
959	
940	
956	
965	
955	
1012	
986	
961	
989	
1011	
952	
955	
936	
1008	
989	
953	
994	
954	
939	
1026	
932	
982	
948	
960	
968	
988	
1007	
932	
983	
974	
939	
1006	
1029	
944	
997	
995	
958	
985	
1019	
971	
965	
960	
991	
928	
984	
933	
993	
944	
942	
925	
935	
945	
945	
921	
1002	
985	
991	
966	
999	
963	
968	
925	
957	
921	
945	
897	
970	
957	
934	
961	
947	
989	
1015	
911	
934	
910	
940	
903	
906	
967	
954	
977	
991	
927	
952	
994	
939	
965	
1000	
955	
958	
1015	
1010	
968	
951	
969	
1016	
1006	
970	
943	
950	
953	
916	
936	
950	
978	
928	
957	
923	
962	
957	
906	
924	
905	
941	
974	
983	
1012	
902	
941	
912	
905	
992	
984	
923	
960	
934	
943	
957	
960	
954	
941	
874	
958	
977	
970	
948	
933	
989	
948	
949	
899	
948	
935	
900	
947	
911	
958	
965	
924	
900	
935	
937	
949	
946	
970	
898	
900	
930	
926	
892	
951	
906	
901	
967	
924	
974	
930	
879	
925	
945	
910	
944	
929	
889	
919	
973	
930	
994	
909	
948	
869	
916	
926	
961	
969	
892	
1014	
966	
1059	
912	
931	
925	
905	
910	
921	
933	
913	
903	
927	
954	
901	
909	
878	
943	
964	
906	
990	
945	
858	
900	
957	
915	
926	
881	
899	
931	
940	
917	
906	
986	
907	
902	
904	
908	
930	
893	
845	
895	
964	
835	
933	
876	
894	
904	
946	
980	
949	
950	
928	
920	
945	
921	
955	
919	
969	
965	
836	
991	
892	
959	
914	
973	
916	
913	
879	
902	
875	
858	
908	
949	
890	
875	
963	
915	
911	
925	
906	
1002	
929	
838	
940	
920	
857	
919	
929	
916	
958	
933	
914	
950	
971	
944	
874	
878	
926	
930	
888	
849	
904	
925	
941	
896	
958	
916	
915	
892	
925	
911	
898	
899	
874	
894	
931	
899	
914	
862	
935	
916	
914	
945	
900	
977	
947	
919	
886	
934	
960	
925	
867	
905	
912	
871	
899	
864	
852	
918	
893	
927	
873	
892	
891	
863	
872	
882	
926	
911	
931	
923	
878	
936	
854	
863	
889	
892	
880	
939	
892	
965	
837	
934	
906	
850	
919	
893	
914	
888	
911	
898	
902	
893	
889	
893	
933	
923	
882	
898	
847	
899	
851	
903	
881	
888	
875	
935	
872	
896	
883	
822	
906	
881	
865	
858	
860	
936	
893	
882	
875	
878	
844	
877	
901	
953	
814	
877	
864	
907	
926	
903	
927	
898	
836	
882	
808	
874	
880	
881	
909	
848	
843	
891	
918	
882	
905	
874	
832	
895	
874	
857	
880	
858	
855	
848	
840	
860	
884	
816	
872	
869	
901	
825	
870	
870	
916	
900	
891	
905	
897	
857	
838	
889	
866	
911	
876	
853	
854	
842	
839	
887	
860	
813	
924	
837	
900	
926	
907	
847	
913	
890	
865	
857	
904	
890	
883	
879	
871	
899	
870	
852	
852	
865	
887	
804	
877	
888	
864	
882	
843	
868	
895	
856	
919	
851	
839	
879	
872	
886	
832	
850	
892	
858	
847	
827	
916	
824	
902	
800	
837	
823	
919	
867	
916	
871	
855	
866	
911	
852	
906	
832	
863	
845	
862	
828	
891	
843	
866	
878	
880	
887	
843	
827	
865	
858	
879	
841	
800	
868	
862	
833	
883	
818	
837	
865	
817	
861	
871	
867	
814	
781	
861	
912	
859	
840	
789	
843	
881	
839	
889	
828	
900	
860	
837	
927	
841	
854	
867	
814	
857	
826	
866	
830	
836	
786	
870	
867	
835	
845	
882	
883	
834	
837	
873	
834	
912	
897	
836	
862	
834	
812	
858	
862	
873	
917	
828	
882	
858	
833	
859	
796	
868	
861	
815	
800	
867	
862	
848	
878	
805	
855	
816	
836	
854	
874	
899	
810	
920	
811	
843	
835	
812	
848	
886	
847	
846	
841	
826	
834	
815	
818	
789	
845	
860	
821	
820	
768	
816	
889	
848	
807	
876	
859	
822	
823	
883	
821	
862	
840	
846	
791	
865	
862	
853	
869	
813	
749	
820	
840	
843	
826	
858	
818	
809	
846	
833	
860	
831	
848	
822	
784	
797	
838	
884	
800	
834	
816	
875	
830	
805	
806	
800	
782	
840	
828	
839	
825	
835	
796	
771	
811	
827	
826	
862	
819	
837	
838	
855	
851	
813	
807	
847	
801	
825	
777	
831	
855	
820	
790	
845	
865	
787	
844	
875	
870	
893	
836	
793	
827	
865	
854	
844	
825	
837	
786	
822	
806	
796	
826	
830	
822	
836	
829	
822	
810	
805	
821	
860	
801	
813	
875	
770	
815	
801	
775	
792	
805	
824	
851	
829	
821	
790	
804	
833	
772	
766	
780	
821	
850	
816	
798	
851	
810	
836	
789	
775	
799	
809	
780	
793	
814	
799	
825	
795	
822	
846	
825	
784	
797	
818	
758	
784	
792	
787	
848	
785	
800	
819	
803	
784	
819	
770	
754	
844	
790	
762	
857	
836	
887	
825	
773	
794	
864	
797	
818	
807	
806	
781	
819	
782	
747	
858	
824	
830	
733	
833	
824	
828	
845	
773	
800	
785	
778	
831	
872	
739	
775	
842	
784	
811	
822	
840	
782	
776	
823	
776	
820	
786	
841	
838	
781	
847	
797	
831	
746	
796	
792	
803	
812	
782	
785	
834	
821	
744	
808	
817	
762	
806	
776	
832	
823	
813	
772	
791	
784	
823	
797	
745	
778	
837	
792	
795	
806	
837	
855	
812	
776	
814	
799	
814	
792	
800	
842	
738	
819	
819	
811	
807	
764	
813	
796	
813	
799	
819	
772	
810	
742	
837	
814	
816	
796	
783	
725	
807	
803	
799	
767	
820	
811	
844	
777	
788	
803	
778	
814	
784	
817	
777	
814	
780	
836	
795	
814	
810	
784	
752	
799	
839	
788	
777	
784	
776	
747	
792	
738	
799	
785	
808	
783	
767	
788	
834	
