#PicoHarp 300  Histogram Data			06/01/2022 03:13:52 PM
#channels per curve
62500
#display curve no.
0	
#memory block no.
0	
#ns/channel
0.0320	
#counts
4	
3	
2	
7	
3	
6	
5	
5	
9	
3	
7	
7	
3	
6	
8	
7	
4	
9	
1	
3	
6	
6	
5	
3	
7	
8	
4	
4	
2	
5	
2	
9	
7	
3	
3	
5	
1	
6	
8	
7	
7	
5	
4	
5	
4	
6	
4	
2	
5	
5	
6	
5	
3	
3	
4	
7	
5	
0	
3	
6	
6	
6	
5	
8	
2	
5	
3	
3	
5	
2	
2	
3	
5	
3	
3	
6	
8	
4	
11	
5	
3	
4	
4	
3	
3	
5	
2	
5	
7	
4	
5	
9	
2	
7	
3	
1	
3	
5	
4	
1	
5	
5	
5	
2	
5	
6	
5	
6	
4	
2	
5	
3	
3	
2	
5	
6	
5	
5	
5	
3	
3	
2	
6	
4	
7	
7	
5	
3	
5	
3	
4	
3	
2	
2	
6	
3	
1	
0	
7	
9	
6	
11	
4	
1	
5	
6	
3	
1	
4	
3	
2	
3	
4	
2	
3	
5	
8	
1	
4	
3	
1	
2	
5	
6	
2	
4	
6	
5	
5	
1	
8	
7	
5	
4	
5	
4	
1	
2	
1	
4	
8	
3	
9	
1	
6	
5	
5	
4	
6	
5	
2	
5	
3	
7	
10	
5	
1	
2	
5	
4	
6	
5	
2	
7	
5	
3	
1	
4	
5	
3	
3	
5	
1	
3	
8	
3	
2	
6	
10	
3	
3	
3	
9	
5	
4	
4	
2	
5	
7	
3	
1	
4	
6	
4	
3	
5	
7	
2	
5	
6	
6	
9	
6	
4	
7	
3	
4	
4	
5	
4	
6	
2	
5	
3	
3	
1	
7	
4	
7	
3	
5	
8	
5	
6	
5	
3	
4	
3	
0	
2	
6	
5	
4	
2	
6	
2	
5	
4	
9	
1	
3	
5	
4	
3	
3	
5	
7	
5	
2	
4	
5	
6	
6	
2	
5	
3	
4	
2	
3	
1	
2	
6	
2	
6	
7	
3	
4	
3	
5	
3	
4	
4	
4	
5	
7	
5	
5	
6	
5	
4	
0	
1	
7	
3	
6	
7	
3	
2	
3	
2	
4	
1	
1	
6	
5	
5	
9	
5	
4	
3	
3	
6	
5	
7	
3	
2	
5	
6	
4	
3	
4	
5	
3	
0	
5	
3	
8	
3	
4	
8	
6	
3	
2	
9	
2	
3	
3	
8	
1	
3	
3	
7	
6	
7	
6	
4	
10	
6	
6	
4	
4	
7	
4	
10	
4	
5	
5	
5	
6	
4	
4	
6	
2	
7	
3	
6	
3	
6	
4	
4	
3	
7	
5	
6	
1	
4	
6	
8	
2	
5	
8	
3	
8	
3	
4	
6	
4	
4	
4	
6	
3	
2	
3	
3	
1	
3	
3	
4	
3	
7	
3	
4	
4	
6	
2	
2	
9	
3	
4	
5	
3	
5	
5	
3	
3	
6	
5	
3	
4	
2	
6	
5	
6	
3	
3	
2	
3	
8	
4	
4	
3	
3	
8	
6	
5	
2	
0	
10	
2	
2	
1	
7	
1	
5	
6	
4	
2	
6	
6	
2	
5	
7	
8	
6	
5	
4	
3	
5	
4	
4	
3	
1	
5	
1	
4	
5	
3	
2	
3	
2	
9	
3	
6	
6	
1	
5	
7	
3	
2	
2	
6	
6	
8	
6	
3	
4	
4	
4	
3	
5	
6	
3	
5	
4	
6	
0	
6	
4	
4	
4	
5	
3	
3	
5	
5	
5	
6	
5	
5	
3	
7	
6	
2	
8	
3	
2	
5	
1	
4	
5	
7	
0	
3	
1	
7	
5	
4	
3	
2	
7	
4	
8	
4	
6	
10	
5	
4	
3	
7	
4	
5	
2	
7	
4	
5	
5	
4	
8	
3	
4	
12	
4	
2	
5	
4	
3	
6	
5	
6	
6	
7	
4	
3	
3	
8	
4	
8	
4	
7	
3	
1	
9	
7	
5	
6	
9	
6	
5	
3	
3	
5	
4	
4	
3	
3	
4	
6	
5	
2	
5	
1	
2	
6	
7	
10	
3	
5	
8	
4	
5	
2	
2	
7	
3	
4	
5	
3	
2	
3	
2	
2	
3	
1	
2	
6	
1	
6	
5	
2	
4	
7	
4	
3	
7	
4	
4	
3	
11	
5	
3	
5	
2	
4	
5	
5	
4	
3	
3	
4	
5	
6	
3	
5	
3	
5	
4	
3	
8	
6	
2	
3	
3	
8	
2	
6	
9	
9	
6	
2	
5	
7	
4	
3	
4	
2	
5	
3	
3	
3	
5	
4	
3	
9	
3	
5	
4	
4	
3	
4	
1	
8	
4	
7	
4	
9	
2	
3	
3	
7	
3	
1	
4	
4	
5	
3	
4	
7	
7	
9	
6	
2	
4	
3	
5	
6	
1	
6	
4	
7	
4	
2	
2	
2	
2	
2	
1	
4	
5	
3	
2	
2	
5	
5	
4	
2	
2	
2	
6	
3	
0	
4	
6	
6	
6	
9	
5	
4	
3	
9	
4	
6	
7	
2	
3	
1	
4	
5	
4	
5	
4	
3	
6	
5	
3	
1	
4	
4	
7	
7	
7	
5	
9	
2	
6	
7	
8	
4	
2	
6	
5	
4	
4	
3	
6	
5	
3	
4	
7	
6	
4	
7	
3	
5	
4	
9	
3	
3	
3	
4	
5	
4	
5	
3	
4	
3	
7	
4	
8	
1	
3	
7	
3	
9	
4	
3	
4	
5	
1	
7	
2	
4	
6	
5	
3	
5	
7	
4	
1	
5	
1	
7	
3	
4	
5	
7	
4	
5	
5	
9	
6	
1	
1	
4	
5	
6	
4	
4	
6	
6	
9	
5	
1	
7	
4	
7	
5	
4	
6	
1	
4	
4	
7	
4	
4	
6	
4	
4	
4	
5	
4	
2	
5	
6	
4	
3	
2	
3	
11	
0	
5	
7	
2	
6	
4	
8	
6	
5	
6	
6	
5	
5	
4	
3	
4	
3	
3	
5	
8	
4	
4	
8	
6	
4	
3	
5	
4	
4	
2	
1	
5	
2	
6	
2	
6	
7	
2	
2	
4	
7	
3	
5	
7	
10	
5	
1	
3	
2	
9	
6	
6	
5	
2	
8	
2	
5	
6	
6	
3	
4	
4	
2	
8	
3	
3	
10	
2	
8	
11	
9	
7	
8	
10	
8	
16	
20	
21	
24	
28	
38	
54	
53	
61	
64	
81	
96	
129	
165	
168	
224	
263	
312	
327	
414	
488	
514	
562	
692	
721	
856	
939	
1033	
1080	
1144	
1206	
1321	
1359	
1409	
1519	
1587	
1633	
1691	
1750	
1801	
1814	
1737	
1837	
1848	
1842	
1893	
1919	
1884	
1865	
2021	
1896	
1982	
2013	
1968	
1953	
1883	
1991	
1940	
2006	
1920	
1946	
2005	
1994	
1955	
1989	
2022	
1916	
1886	
2014	
1956	
1969	
1904	
1967	
1978	
1994	
1839	
1911	
1832	
1935	
1843	
1896	
1820	
1873	
1924	
1935	
1920	
1882	
1866	
1920	
1905	
1844	
1850	
1823	
1801	
1910	
1867	
1836	
1845	
1849	
1874	
1797	
1795	
1825	
1815	
1841	
1848	
1847	
1825	
1798	
1851	
1832	
1850	
1843	
1762	
1827	
1845	
1906	
1770	
1740	
1800	
1710	
1796	
1859	
1787	
1848	
1888	
1843	
1769	
1750	
1756	
1859	
1796	
1760	
1792	
1809	
1851	
1787	
1747	
1752	
1790	
1798	
1732	
1705	
1764	
1723	
1736	
1793	
1685	
1744	
1795	
1661	
1761	
1771	
1785	
1768	
1641	
1794	
1660	
1732	
1711	
1741	
1774	
1689	
1789	
1726	
1662	
1655	
1730	
1748	
1658	
1736	
1687	
1728	
1699	
1690	
1714	
1739	
1721	
1659	
1682	
1756	
1676	
1631	
1656	
1658	
1712	
1756	
1702	
1699	
1719	
1574	
1617	
1780	
1659	
1608	
1693	
1692	
1641	
1671	
1682	
1647	
1719	
1629	
1637	
1685	
1624	
1689	
1684	
1736	
1629	
1614	
1704	
1650	
1674	
1719	
1637	
1590	
1530	
1658	
1673	
1662	
1660	
1717	
1674	
1687	
1670	
1621	
1618	
1631	
1673	
1625	
1623	
1647	
1662	
1531	
1626	
1659	
1653	
1560	
1571	
1639	
1617	
1614	
1634	
1630	
1613	
1632	
1670	
1613	
1545	
1630	
1523	
1620	
1694	
1591	
1604	
1584	
1613	
1592	
1555	
1597	
1560	
1645	
1603	
1548	
1564	
1637	
1524	
1560	
1523	
1500	
1498	
1559	
1550	
1568	
1613	
1617	
1557	
1574	
1554	
1547	
1613	
1585	
1611	
1575	
1587	
1510	
1558	
1540	
1596	
1598	
1493	
1587	
1565	
1575	
1559	
1553	
1550	
1507	
1507	
1582	
1530	
1590	
1557	
1566	
1562	
1522	
1562	
1595	
1554	
1598	
1533	
1531	
1517	
1604	
1498	
1615	
1527	
1558	
1569	
1429	
1461	
1590	
1553	
1531	
1526	
1530	
1530	
1507	
1520	
1554	
1558	
1527	
1461	
1481	
1519	
1548	
1514	
1508	
1499	
1456	
1492	
1529	
1501	
1557	
1541	
1504	
1514	
1466	
1513	
1512	
1519	
1549	
1475	
1439	
1597	
1482	
1457	
1469	
1516	
1475	
1474	
1468	
1478	
1407	
1482	
1541	
1491	
1508	
1446	
1462	
1432	
1449	
1474	
1487	
1541	
1525	
1453	
1458	
1438	
1444	
1426	
1451	
1441	
1493	
1436	
1457	
1463	
1551	
1488	
1510	
1493	
1374	
1461	
1433	
1398	
1446	
1527	
1535	
1453	
1500	
1491	
1482	
1474	
1395	
1458	
1435	
1452	
1394	
1399	
1378	
1402	
1423	
1404	
1461	
1407	
1393	
1446	
1469	
1397	
1432	
1492	
1457	
1398	
1464	
1412	
1349	
1457	
1483	
1470	
1454	
1397	
1402	
1507	
1444	
1420	
1431	
1432	
1404	
1471	
1421	
1488	
1457	
1366	
1425	
1450	
1404	
1443	
1400	
1347	
1406	
1474	
1417	
1401	
1406	
1372	
1346	
1420	
1422	
1433	
1441	
1399	
1385	
1445	
1302	
1390	
1450	
1420	
1398	
1442	
1332	
1407	
1431	
1398	
1426	
1360	
1437	
1371	
1393	
1386	
1363	
1447	
1468	
1418	
1387	
1399	
1433	
1406	
1410	
1424	
1384	
1439	
1351	
1400	
1423	
1350	
1384	
1400	
1368	
1378	
1389	
1385	
1322	
1383	
1351	
1319	
1414	
1301	
1355	
1367	
1356	
1372	
1350	
1341	
1347	
1402	
1366	
1311	
1403	
1320	
1302	
1427	
1315	
1363	
1392	
1350	
1364	
1377	
1333	
1386	
1348	
1438	
1360	
1374	
1359	
1370	
1323	
1320	
1322	
1303	
1331	
1417	
1385	
1388	
1302	
1375	
1342	
1335	
1308	
1318	
1347	
1381	
1414	
1356	
1362	
1242	
1341	
1325	
1346	
1346	
1365	
1358	
1275	
1345	
1372	
1325	
1383	
1290	
1347	
1354	
1335	
1353	
1308	
1341	
1379	
1302	
1368	
1281	
1406	
1230	
1338	
1337	
1280	
1271	
1310	
1366	
1390	
1282	
1310	
1294	
1379	
1290	
1305	
1300	
1369	
1328	
1362	
1376	
1341	
1270	
1369	
1333	
1379	
1361	
1312	
1323	
1317	
1380	
1339	
1383	
1288	
1378	
1291	
1302	
1365	
1332	
1301	
1317	
1238	
1296	
1295	
1312	
1372	
1368	
1303	
1193	
1315	
1315	
1292	
1294	
1329	
1302	
1246	
1273	
1358	
1210	
1296	
1286	
1300	
1354	
1339	
1324	
1270	
1288	
1328	
1263	
1278	
1297	
1269	
1324	
1246	
1331	
1297	
1343	
1317	
1260	
1320	
1341	
1280	
1326	
1270	
1268	
1354	
1277	
1315	
1292	
1228	
1243	
1260	
1247	
1307	
1342	
1209	
1291	
1267	
1285	
1213	
1218	
1284	
1209	
1257	
1217	
1230	
1278	
1256	
1294	
1257	
1274	
1263	
1201	
1283	
1257	
1219	
1230	
1269	
1211	
1269	
1264	
1241	
1300	
1219	
1245	
1262	
1226	
1260	
1197	
1285	
1258	
1255	
1321	
1256	
1239	
1206	
1293	
1237	
1284	
1235	
1312	
1259	
1207	
1323	
1329	
1302	
1234	
1260	
1195	
1295	
1300	
1310	
1223	
1253	
1222	
1255	
1268	
1287	
1192	
1243	
1247	
1230	
1276	
1213	
1275	
1267	
1249	
1286	
1225	
1273	
1265	
1240	
1273	
1243	
1226	
1238	
1281	
1219	
1237	
1274	
1255	
1300	
1198	
1304	
1242	
1209	
1243	
1310	
1189	
1185	
1197	
1203	
1230	
1242	
1227	
1226	
1174	
1249	
1240	
1233	
1268	
1219	
1278	
1188	
1232	
1200	
1206	
1196	
1203	
1168	
1273	
1258	
1188	
1253	
1227	
1242	
1186	
1217	
1216	
1223	
1251	
1226	
1163	
1203	
1246	
1198	
1158	
1199	
1285	
1198	
1235	
1247	
1133	
1194	
1253	
1247	
1133	
1208	
1275	
1215	
1262	
1225	
1192	
1219	
1173	
1071	
1172	
1142	
1166	
1206	
1183	
1256	
1216	
1199	
1187	
1206	
1188	
1217	
1225	
1216	
1115	
1201	
1176	
1175	
1202	
1261	
1167	
1134	
1229	
1129	
1171	
1210	
1204	
1191	
1183	
1192	
1228	
1137	
1181	
1189	
1169	
1162	
1186	
1191	
1117	
1199	
1231	
1240	
1222	
1160	
1205	
1246	
1177	
1221	
1163	
1188	
1208	
1206	
1227	
1217	
1231	
1207	
1193	
1197	
1168	
1166	
1104	
1284	
1207	
1226	
1187	
1186	
1132	
1224	
1183	
1140	
1184	
1168	
1216	
1172	
1152	
1200	
1225	
1187	
1144	
1167	
1207	
1155	
1147	
1166	
1149	
1141	
1180	
1180	
1155	
1221	
1181	
1157	
1131	
1135	
1101	
1129	
1202	
1155	
1139	
1222	
1171	
1108	
1160	
1088	
1194	
1140	
1182	
1158	
1128	
1149	
1149	
1188	
1178	
1182	
1093	
1222	
1205	
1104	
1175	
1130	
1132	
1216	
1097	
1161	
1180	
1080	
1153	
1129	
1161	
1208	
1097	
1131	
1108	
1176	
1088	
1130	
1136	
1151	
1162	
1154	
1142	
1140	
1169	
1155	
1142	
1196	
1168	
1154	
1143	
1169	
1132	
1070	
1133	
1194	
1124	
1109	
1152	
1137	
1119	
1093	
1176	
1099	
1136	
1176	
1117	
1134	
1194	
1139	
1144	
1127	
1209	
1107	
1139	
1123	
1156	
1077	
1181	
1106	
1131	
1143	
1159	
1101	
1098	
1072	
1103	
1154	
1103	
1139	
1132	
1187	
1145	
1081	
1128	
1161	
1085	
1153	
1119	
1180	
1114	
1101	
1107	
1099	
1097	
1116	
1141	
1143	
1081	
1128	
1105	
1122	
1155	
1143	
1094	
1095	
1117	
1130	
1139	
1114	
1141	
1130	
1101	
1150	
1093	
1038	
1138	
1038	
1125	
1142	
1104	
1120	
1105	
1061	
1015	
1131	
1095	
1125	
1111	
1087	
1114	
1113	
1132	
1053	
1087	
1155	
1091	
1121	
1202	
1060	
1079	
1073	
1130	
1065	
1107	
988	
1131	
1092	
1098	
1103	
1120	
1134	
1029	
1102	
1145	
1054	
1051	
1103	
1096	
1078	
1128	
1105	
1097	
1096	
1028	
1077	
1082	
1131	
1111	
1124	
990	
1059	
1099	
1144	
1149	
1133	
1085	
1161	
1068	
1031	
1101	
1073	
1099	
1085	
1111	
1070	
1055	
1086	
1068	
1071	
1108	
1075	
1132	
1094	
1094	
1071	
1070	
1057	
1128	
1099	
1126	
1086	
1021	
1061	
1048	
1058	
1047	
1062	
1024	
1062	
1055	
1064	
1071	
1076	
1109	
1107	
1072	
1049	
1000	
1078	
1010	
1057	
1025	
1131	
1077	
1003	
1061	
1073	
1059	
1049	
1073	
1111	
1064	
1101	
1116	
1073	
1073	
1080	
1075	
1058	
1071	
1078	
1053	
1086	
1053	
1118	
1053	
1083	
1101	
1064	
1076	
1096	
1069	
1019	
1097	
1079	
1052	
1030	
969	
1064	
1043	
1101	
1079	
1038	
981	
1042	
1039	
1075	
1040	
1061	
1075	
1022	
1055	
1049	
1024	
1079	
1054	
1109	
1011	
1087	
1001	
1074	
979	
1009	
1062	
1026	
1063	
1033	
1060	
1035	
1081	
1087	
1062	
1035	
1032	
1041	
1090	
1026	
1016	
1048	
1045	
1158	
1084	
995	
960	
1038	
1044	
1006	
1048	
1003	
1070	
1088	
1026	
1049	
1002	
1029	
1036	
1061	
1075	
1057	
1065	
994	
1017	
1004	
1007	
1061	
1092	
1051	
1018	
975	
1020	
1103	
1071	
1032	
1036	
1093	
987	
1032	
1016	
1013	
1002	
961	
1081	
1000	
1025	
1010	
1049	
1007	
1027	
1065	
1004	
992	
977	
1051	
1049	
1014	
1026	
1035	
1047	
1015	
1044	
999	
1040	
1076	
1061	
988	
1026	
1012	
931	
1012	
1025	
1010	
1051	
1025	
1021	
983	
1005	
1001	
1046	
1022	
1003	
1002	
982	
1024	
1035	
1019	
991	
1007	
964	
1013	
944	
1033	
965	
982	
1063	
985	
990	
1021	
975	
1021	
1027	
1000	
1004	
1028	
1005	
992	
1054	
977	
1040	
987	
1071	
971	
974	
977	
1070	
1008	
1008	
1052	
974	
1036	
1025	
1067	
993	
1010	
956	
975	
1007	
1004	
1031	
981	
1007	
973	
1022	
999	
1009	
975	
981	
988	
973	
974	
1023	
1003	
1034	
1037	
992	
993	
988	
1016	
991	
973	
953	
961	
1029	
1004	
1003	
922	
1003	
983	
1034	
1012	
967	
958	
1005	
971	
978	
977	
933	
967	
973	
987	
998	
986	
951	
938	
976	
1027	
975	
964	
973	
989	
1036	
954	
991	
980	
944	
909	
920	
993	
1024	
1008	
1004	
1030	
975	
956	
1023	
999	
960	
982	
994	
914	
1008	
967	
983	
966	
976	
958	
1038	
1026	
917	
951	
1020	
954	
961	
1016	
1013	
963	
898	
985	
920	
943	
940	
951	
957	
952	
976	
936	
962	
985	
946	
920	
1033	
968	
957	
955	
968	
998	
956	
947	
979	
930	
1015	
951	
940	
931	
995	
1007	
949	
966	
927	
956	
943	
912	
963	
952	
921	
956	
988	
951	
926	
942	
963	
915	
921	
994	
919	
927	
964	
955	
975	
946	
946	
930	
971	
977	
956	
937	
969	
954	
943	
997	
889	
936	
988	
950	
936	
972	
942	
951	
919	
916	
917	
918	
974	
927	
978	
936	
910	
872	
954	
933	
955	
971	
937	
932	
940	
955	
888	
925	
951	
1008	
978	
883	
925	
958	
944	
944	
908	
974	
947	
919	
942	
904	
910	
954	
923	
909	
922	
922	
901	
956	
888	
979	
962	
905	
889	
895	
926	
867	
1006	
943	
903	
947	
972	
926	
951	
880	
883	
931	
929	
892	
941	
974	
934	
974	
909	
968	
923	
894	
975	
957	
924	
917	
929	
918	
942	
983	
988	
914	
889	
914	
917	
916	
921	
900	
904	
905	
924	
901	
880	
887	
944	
864	
955	
905	
904	
913	
986	
935	
876	
890	
916	
922	
948	
914	
870	
917	
890	
871	
906	
929	
851	
885	
954	
925	
840	
912	
916	
891	
947	
907	
885	
868	
946	
870	
954	
885	
928	
935	
915	
901	
926	
896	
925	
853	
860	
874	
902	
928	
849	
918	
898	
857	
882	
937	
934	
862	
914	
899	
894	
914	
905	
870	
908	
906	
929	
901	
921	
926	
916	
868	
871	
905	
871	
898	
870	
917	
861	
923	
927	
853	
863	
891	
900	
910	
895	
894	
938	
920	
831	
896	
920	
875	
859	
854	
901	
966	
928	
902	
917	
896	
905	
894	
833	
887	
878	
877	
908	
913	
863	
909	
864	
864	
896	
865	
855	
863	
890	
898	
882	
849	
866	
906	
827	
937	
851	
897	
874	
871	
853	
882	
893	
871	
892	
928	
837	
916	
881	
909	
920	
877	
863	
846	
909	
903	
866	
859	
815	
855	
832	
861	
826	
894	
859	
867	
862	
837	
868	
913	
865	
880	
880	
872	
866	
889	
869	
827	
890	
857	
906	
870	
942	
839	
893	
892	
879	
860	
850	
860	
810	
812	
846	
845	
837	
879	
868	
871	
897	
900	
856	
815	
874	
855	
852	
916	
866	
869	
873	
826	
855	
848	
872	
886	
896	
844	
877	
940	
874	
850	
851	
878	
804	
876	
865	
887	
798	
897	
854	
850	
820	
799	
878	
856	
824	
874	
853	
911	
875	
885	
873	
883	
839	
892	
799	
849	
877	
908	
889	
849	
880	
844	
859	
850	
901	
850	
826	
876	
853	
836	
811	
813	
853	
826	
888	
797	
823	
894	
837	
880	
833	
864	
810	
914	
877	
809	
829	
863	
834	
848	
885	
839	
853	
834	
811	
874	
839	
838	
836	
873	
823	
900	
821	
815	
857	
853	
815	
818	
856	
834	
797	
854	
819	
835	
860	
856	
878	
819	
822	
795	
804	
824	
839	
803	
820	
816	
788	
834	
837	
820	
812	
830	
823	
819	
846	
840	
805	
860	
852	
818	
844	
821	
780	
842	
820	
843	
872	
849	
861	
829	
802	
810	
807	
842	
877	
807	
840	
817	
839	
863	
860	
798	
815	
816	
790	
867	
867	
834	
796	
888	
826	
856	
814	
794	
840	
816	
853	
830	
802	
849	
837	
857	
778	
847	
816	
833	
825	
834	
819	
841	
831	
869	
825	
851	
791	
836	
786	
831	
828	
797	
843	
874	
867	
806	
806	
854	
829	
815	
820	
821	
833	
812	
844	
758	
836	
805	
810	
821	
780	
809	
844	
787	
807	
819	
807	
783	
788	
819	
771	
833	
810	
739	
780	
790	
773	
801	
816	
842	
833	
783	
825	
790	
804	
812	
794	
880	
814	
779	
843	
804	
829	
821	
814	
786	
804	
771	
769	
840	
866	
791	
837	
761	
782	
821	
795	
778	
774	
848	
784	
786	
852	
766	
820	
810	
821	
848	
796	
832	
790	
801	
785	
813	
801	
802	
812	
810	
810	
812	
791	
774	
787	
875	
767	
807	
772	
787	
771	
780	
833	
827	
832	
819	
791	
747	
807	
834	
790	
791	
798	
814	
839	
822	
769	
862	
807	
808	
747	
796	
783	
807	
811	
824	
753	
808	
809	
812	
751	
816	
762	
765	
785	
818	
741	
807	
838	
741	
790	
772	
803	
806	
729	
738	
781	
793	
789	
748	
808	
855	
795	
763	
772	
801	
848	
821	
777	
763	
822	
799	
782	
759	
774	
793	
783	
783	
794	
828	
763	
797	
777	
776	
738	
777	
795	
798	
813	
794	
759	
758	
798	
783	
796	
780	
830	
805	
811	
843	
774	
775	
815	
747	
808	
730	
755	
764	
789	
769	
782	
818	
755	
786	
807	
762	
755	
774	
678	
758	
751	
771	
788	
727	
795	
744	
768	
790	
767	
742	
740	
761	
797	
760	
758	
776	
801	
704	
753	
732	
745	
750	
752	
791	
751	
759	
776	
796	
742	
773	
747	
728	
741	
754	
745	
761	
797	
815	
711	
754	
755	
768	
743	
777	
737	
790	
790	
774	
754	
770	
786	
746	
760	
783	
715	
750	
768	
743	
748	
730	
756	
763	
776	
777	
752	
795	
774	
770	
750	
738	
718	
739	
763	
774	
756	
787	
735	
748	
722	
729	
733	
728	
759	
764	
732	
709	
743	
730	
749	
763	
715	
788	
733	
792	
745	
767	
808	
766	
743	
777	
738	
756	
785	
768	
774	
801	
765	
770	
741	
721	
808	
733	
779	
726	
810	
752	
720	
763	
792	
788	
778	
768	
746	
756	
704	
789	
745	
762	
828	
767	
728	
746	
757	
674	
749	
810	
761	
807	
765	
757	
762	
753	
767	
700	
752	
737	
741	
721	
761	
696	
707	
718	
729	
792	
734	
716	
733	
705	
738	
733	
704	
776	
714	
696	
759	
776	
747	
740	
732	
678	
720	
731	
728	
781	
743	
725	
738	
693	
747	
717	
748	
733	
749	
684	
712	
727	
775	
743	
648	
712	
767	
778	
727	
718	
715	
742	
709	
712	
716	
751	
714	
736	
751	
766	
718	
740	
638	
657	
699	
730	
741	
772	
710	
748	
690	
728	
726	
693	
723	
760	
702	
717	
732	
693	
719	
701	
698	
742	
724	
728	
727	
718	
693	
709	
708	
677	
724	
771	
735	
738	
708	
722	
712	
703	
713	
667	
684	
699	
707	
693	
764	
703	
768	
716	
691	
724	
710	
707	
708	
693	
701	
700	
729	
664	
750	
676	
727	
752	
708	
700	
736	
744	
716	
688	
741	
680	
719	
756	
706	
729	
691	
743	
741	
693	
709	
727	
699	
691	
764	
699	
749	
707	
686	
744	
725	
706	
732	
719	
753	
742	
729	
691	
709	
696	
742	
681	
732	
749	
680	
746	
700	
734	
706	
640	
740	
701	
686	
680	
728	
728	
670	
696	
724	
672	
708	
755	
729	
711	
706	
741	
694	
663	
695	
681	
709	
697	
726	
735	
679	
751	
735	
683	
719	
747	
677	
722	
681	
673	
708	
696	
700	
692	
643	
699	
730	
736	
752	
697	
716	
647	
684	
703	
713	
723	
730	
660	
669	
710	
721	
712	
665	
701	
684	
648	
702	
734	
663	
722	
659	
739	
686	
717	
711	
661	
673	
676	
703	
688	
680	
718	
695	
736	
686	
693	
650	
687	
699	
704	
700	
643	
710	
702	
721	
673	
720	
671	
736	
725	
670	
726	
658	
695	
705	
621	
654	
661	
668	
688	
682	
706	
681	
748	
709	
691	
685	
672	
695	
727	
663	
668	
710	
707	
733	
697	
712	
703	
704	
646	
698	
725	
713	
722	
739	
731	
689	
710	
711	
722	
640	
722	
667	
710	
673	
727	
700	
656	
707	
714	
612	
723	
632	
697	
636	
701	
708	
645	
648	
698	
702	
682	
661	
656	
705	
666	
695	
597	
661	
662	
651	
666	
618	
689	
650	
683	
674	
713	
653	
726	
668	
662	
685	
703	
651	
680	
655	
676	
715	
670	
646	
664	
636	
650	
682	
736	
668	
721	
668	
671	
642	
672	
633	
707	
721	
673	
664	
641	
689	
671	
644	
644	
661	
646	
663	
685	
693	
744	
645	
665	
597	
697	
620	
633	
659	
652	
700	
676	
699	
688	
653	
631	
637	
656	
649	
647	
675	
677	
690	
691	
648	
629	
645	
657	
659	
693	
638	
672	
623	
673	
691	
621	
663	
682	
678	
646	
645	
666	
662	
679	
705	
645	
648	
641	
675	
670	
628	
631	
696	
686	
657	
671	
674	
664	
675	
681	
686	
650	
640	
666	
636	
675	
682	
627	
614	
661	
639	
640	
670	
667	
673	
660	
633	
658	
654	
656	
613	
646	
685	
644	
668	
681	
664	
690	
671	
625	
648	
627	
650	
584	
631	
679	
630	
650	
657	
659	
635	
629	
613	
653	
619	
679	
627	
645	
629	
688	
641	
655	
684	
688	
616	
652	
657	
649	
665	
652	
618	
662	
673	
627	
644	
663	
591	
644	
634	
622	
657	
614	
630	
631	
646	
627	
698	
632	
649	
637	
677	
651	
685	
639	
655	
669	
666	
670	
660	
668	
625	
585	
639	
636	
676	
614	
591	
639	
687	
657	
646	
597	
647	
598	
666	
664	
640	
665	
650	
664	
647	
636	
629	
685	
606	
662	
663	
630	
622	
648	
678	
656	
666	
614	
598	
664	
637	
691	
647	
609	
620	
615	
649	
665	
656	
685	
665	
679	
665	
652	
580	
571	
610	
656	
618	
631	
672	
660	
655	
650	
646	
577	
669	
599	
649	
637	
572	
681	
609	
655	
604	
629	
659	
610	
628	
628	
689	
627	
607	
621	
616	
616	
634	
653	
643	
612	
664	
658	
651	
622	
602	
647	
576	
602	
618	
597	
660	
632	
642	
613	
640	
617	
647	
634	
583	
620	
580	
627	
675	
701	
620	
599	
651	
626	
650	
635	
626	
614	
634	
633	
604	
611	
632	
618	
612	
599	
642	
616	
642	
638	
651	
622	
637	
607	
653	
587	
636	
623	
598	
599	
646	
569	
657	
621	
645	
608	
606	
615	
610	
629	
657	
602	
645	
657	
621	
604	
617	
615	
584	
609	
617	
656	
621	
612	
614	
655	
637	
576	
631	
603	
670	
643	
596	
618	
634	
602	
605	
606	
634	
598	
598	
616	
660	
609	
637	
599	
618	
624	
611	
614	
613	
625	
646	
602	
563	
602	
654	
578	
605	
634	
621	
624	
605	
583	
621	
620	
618	
624	
607	
632	
615	
644	
597	
608	
645	
608	
594	
654	
619	
576	
608	
604	
589	
629	
582	
669	
604	
614	
583	
647	
614	
627	
632	
632	
611	
695	
571	
623	
576	
657	
605	
603	
614	
625	
656	
616	
560	
613	
627	
596	
644	
628	
603	
616	
644	
606	
614	
590	
584	
578	
632	
599	
619	
626	
596	
622	
592	
619	
592	
589	
603	
614	
595	
600	
574	
625	
627	
590	
618	
610	
584	
599	
611	
610	
615	
618	
588	
576	
618	
589	
636	
597	
559	
580	
570	
574	
567	
600	
570	
606	
592	
585	
579	
582	
558	
556	
598	
578	
600	
559	
619	
547	
617	
556	
623	
584	
564	
561	
544	
623	
595	
576	
567	
648	
589	
667	
594	
614	
574	
581	
556	
587	
616	
645	
588	
614	
622	
556	
591	
657	
602	
568	
620	
603	
595	
582	
562	
551	
624	
614	
604	
611	
566	
540	
553	
597	
657	
605	
604	
591	
586	
589	
569	
610	
616	
594	
608	
610	
619	
605	
584	
601	
579	
535	
573	
613	
564	
565	
596	
599	
626	
572	
563	
620	
560	
603	
555	
585	
586	
574	
535	
589	
560	
621	
566	
573	
590	
624	
586	
543	
598	
598	
541	
563	
573	
584	
561	
541	
579	
546	
543	
626	
584	
566	
594	
515	
562	
547	
568	
521	
582	
618	
579	
556	
594	
581	
574	
572	
564	
581	
563	
667	
552	
569	
535	
551	
571	
570	
590	
613	
551	
550	
636	
539	
602	
589	
553	
576	
590	
617	
561	
627	
544	
565	
598	
586	
583	
586	
602	
584	
589	
568	
560	
578	
556	
548	
588	
606	
547	
572	
548	
581	
596	
568	
533	
588	
547	
576	
563	
573	
575	
591	
588	
582	
589	
586	
586	
581	
549	
583	
625	
564	
574	
595	
546	
552	
558	
520	
576	
538	
571	
560	
606	
591	
555	
574	
552	
571	
587	
554	
585	
554	
565	
607	
558	
587	
564	
546	
553	
579	
592	
580	
589	
577	
559	
550	
579	
589	
551	
539	
559	
582	
602	
568	
529	
568	
586	
543	
594	
555	
573	
598	
533	
585	
573	
560	
551	
584	
588	
540	
527	
522	
534	
639	
601	
578	
602	
583	
563	
553	
590	
541	
559	
570	
539	
589	
543	
584	
560	
562	
565	
582	
600	
564	
579	
593	
591	
592	
536	
555	
601	
583	
538	
578	
560	
592	
576	
534	
583	
547	
544	
530	
561	
591	
532	
574	
570	
554	
533	
586	
548	
568	
618	
616	
552	
585	
577	
571	
544	
530	
537	
566	
544	
527	
538	
517	
532	
544	
547	
539	
520	
573	
541	
562	
547	
548	
523	
543	
584	
570	
566	
570	
545	
579	
549	
567	
551	
573	
527	
517	
505	
562	
570	
528	
578	
544	
518	
554	
579	
604	
565	
567	
571	
538	
508	
572	
545	
554	
542	
591	
555	
550	
565	
557	
578	
540	
537	
529	
599	
563	
566	
566	
529	
606	
596	
509	
550	
567	
545	
562	
588	
530	
546	
579	
537	
552	
538	
505	
555	
568	
555	
551	
520	
518	
549	
548	
556	
568	
550	
589	
575	
568	
592	
574	
571	
519	
507	
534	
558	
575	
535	
570	
575	
546	
535	
536	
557	
576	
564	
544	
578	
540	
569	
511	
512	
506	
547	
556	
555	
526	
512	
545	
552	
541	
524	
538	
507	
569	
539	
555	
554	
500	
537	
576	
569	
567	
529	
538	
553	
529	
534	
538	
541	
560	
550	
547	
534	
534	
484	
556	
557	
523	
506	
505	
534	
506	
502	
551	
535	
520	
523	
537	
552	
495	
508	
534	
518	
528	
510	
535	
530	
543	
533	
565	
506	
561	
519	
554	
554	
533	
528	
530	
537	
591	
528	
501	
567	
570	
522	
533	
553	
569	
524	
564	
545	
534	
538	
538	
546	
518	
520	
540	
544	
503	
517	
579	
492	
538	
514	
513	
510	
546	
509	
520	
529	
549	
584	
513	
543	
550	
584	
577	
547	
501	
510	
513	
516	
556	
535	
513	
496	
538	
559	
539	
528	
515	
525	
523	
513	
513	
487	
540	
533	
558	
557	
509	
544	
514	
551	
557	
514	
537	
551	
586	
560	
527	
502	
558	
497	
528	
496	
496	
530	
516	
544	
516	
505	
499	
560	
539	
566	
531	
534	
488	
473	
511	
469	
521	
517	
538	
521	
522	
526	
556	
484	
515	
542	
546	
527	
499	
494	
515	
515	
531	
516	
521	
529	
511	
551	
497	
494	
558	
512	
551	
516	
509	
559	
537	
532	
525	
539	
512	
473	
523	
483	
506	
544	
555	
514	
523	
505	
475	
527	
508	
548	
523	
515	
518	
520	
498	
534	
509	
525	
515	
507	
535	
547	
550	
526	
478	
546	
507	
535	
521	
528	
509	
531	
521	
521	
499	
510	
519	
488	
547	
509	
498	
489	
530	
500	
526	
527	
482	
493	
495	
498	
489	
542	
531	
512	
538	
529	
544	
486	
482	
514	
507	
503	
496	
500	
506	
468	
540	
528	
545	
531	
497	
516	
528	
502	
520	
531	
534	
518	
506	
467	
546	
509	
509	
556	
514	
502	
525	
476	
531	
499	
478	
483	
512	
496	
490	
533	
476	
485	
521	
491	
540	
546	
504	
511	
476	
489	
540	
462	
484	
536	
498	
470	
521	
524	
513	
508	
539	
506	
476	
533	
544	
494	
534	
492	
515	
493	
463	
501	
510	
487	
486	
512	
530	
464	
512	
512	
479	
531	
501	
502	
514	
507	
516	
508	
494	
502	
490	
485	
504	
499	
498	
529	
501	
512	
494	
503	
481	
532	
503	
523	
503	
499	
481	
485	
488	
483	
485	
522	
485	
499	
459	
493	
489	
512	
487	
512	
498	
451	
512	
524	
500	
508	
467	
535	
490	
482	
506	
462	
476	
451	
530	
469	
494	
500	
494	
508	
492	
510	
488	
471	
491	
498	
513	
505	
485	
461	
507	
506	
542	
538	
507	
499	
482	
516	
503	
497	
489	
527	
475	
532	
517	
478	
470	
471	
496	
458	
480	
478	
500	
502	
492	
493	
473	
455	
537	
529	
511	
478	
491	
512	
511	
513	
522	
534	
470	
503	
506	
482	
500	
484	
462	
484	
493	
460	
476	
461	
486	
514	
485	
480	
465	
492	
476	
479	
476	
470	
507	
444	
482	
536	
472	
497	
490	
490	
489	
455	
480	
468	
481	
494	
487	
494	
476	
524	
494	
501	
498	
525	
467	
469	
454	
474	
483	
445	
508	
511	
497	
476	
501	
495	
484	
506	
486	
447	
461	
457	
482	
454	
474	
477	
472	
488	
484	
502	
502	
510	
470	
473	
465	
504	
481	
470	
493	
482	
428	
479	
428	
419	
511	
515	
455	
457	
504	
474	
480	
504	
478	
456	
497	
490	
458	
459	
520	
484	
496	
486	
496	
505	
505	
484	
488	
502	
533	
467	
476	
494	
446	
479	
467	
486	
484	
469	
508	
466	
517	
476	
455	
480	
472	
475	
485	
469	
491	
496	
499	
468	
482	
478	
471	
436	
455	
468	
478	
478	
513	
486	
492	
451	
475	
493	
439	
477	
457	
459	
478	
480	
486	
471	
508	
481	
517	
483	
474	
453	
459	
466	
435	
472	
462	
478	
484	
474	
500	
527	
488	
469	
453	
449	
497	
450	
480	
466	
457	
464	
460	
464	
477	
482	
472	
463	
502	
482	
471	
453	
454	
461	
456	
477	
493	
470	
461	
471	
497	
444	
461	
462	
511	
469	
485	
475	
461	
423	
453	
447	
441	
495	
441	
488	
487	
470	
463	
453	
427	
462	
466	
459	
444	
479	
461	
442	
475	
452	
496	
473	
415	
472	
491	
467	
474	
480	
451	
463	
476	
472	
464	
493	
469	
482	
513	
446	
463	
455	
479	
463	
457	
467	
460	
475	
467	
512	
450	
458	
495	
440	
497	
484	
444	
435	
454	
473	
455	
471	
454	
458	
448	
479	
485	
440	
436	
461	
474	
432	
433	
448	
524	
469	
455	
458	
460	
436	
444	
434	
467	
436	
450	
456	
470	
446	
466	
464	
469	
450	
488	
480	
490	
462	
461	
470	
465	
433	
440	
487	
456	
440	
504	
459	
494	
457	
428	
436	
461	
442	
445	
432	
436	
438	
423	
442	
428	
446	
461	
438	
421	
492	
455	
496	
435	
456	
430	
482	
450	
440	
463	
458	
474	
478	
477	
467	
449	
446	
461	
439	
459	
450	
459	
454	
445	
439	
472	
448	
451	
490	
448	
500	
454	
466	
458	
447	
456	
459	
473	
478	
457	
471	
470	
459	
474	
454	
464	
436	
429	
467	
444	
439	
454	
434	
437	
445	
500	
459	
426	
457	
410	
452	
427	
493	
463	
479	
464	
455	
404	
450	
450	
468	
484	
464	
453	
466	
445	
425	
453	
470	
442	
443	
436	
469	
431	
422	
475	
439	
468	
427	
469	
463	
450	
450	
422	
487	
449	
453	
445	
462	
444	
455	
426	
414	
473	
456	
484	
498	
431	
457	
480	
439	
440	
499	
420	
422	
420	
414	
439	
422	
406	
485	
438	
440	
465	
441	
461	
428	
439	
410	
448	
410	
474	
420	
477	
450	
423	
446	
468	
435	
418	
426	
430	
411	
431	
500	
437	
457	
406	
409	
465	
419	
410	
434	
476	
436	
449	
457	
440	
424	
455	
430	
442	
400	
436	
442	
457	
449	
439	
417	
447	
437	
466	
444	
394	
447	
421	
407	
415	
452	
457	
419	
460	
435	
460	
426	
444	
461	
452	
425	
457	
436	
430	
434	
441	
440	
435	
420	
468	
436	
447	
431	
412	
471	
412	
440	
440	
439	
469	
432	
404	
453	
429	
441	
422	
421	
432	
407	
417	
426	
436	
446	
476	
392	
468	
435	
458	
427	
433	
438	
443	
460	
437	
432	
440	
419	
402	
423	
454	
471	
452	
404	
455	
414	
417	
421	
431	
449	
456	
400	
419	
440	
406	
424	
436	
441	
391	
452	
426	
411	
436	
458	
430	
455	
464	
412	
398	
445	
465	
457	
437	
422	
454	
440	
459	
421	
408	
442	
455	
452	
438	
417	
435	
420	
448	
430	
441	
436	
390	
435	
430	
430	
400	
431	
412	
446	
433	
453	
442	
438	
464	
461	
428	
393	
452	
453	
420	
428	
433	
439	
380	
420	
434	
449	
413	
399	
384	
426	
446	
445	
419	
396	
423	
441	
432	
403	
465	
458	
424	
428	
435	
408	
450	
443	
416	
451	
431	
438	
420	
418	
423	
434	
425	
410	
471	
484	
402	
426	
441	
474	
384	
400	
426	
433	
408	
419	
378	
425	
448	
425	
399	
438	
429	
450	
409	
451	
424	
424	
432	
433	
434	
445	
380	
386	
412	
411	
413	
427	
408	
404	
433	
441	
416	
418	
415	
465	
404	
423	
432	
418	
418	
370	
426	
389	
409	
444	
419	
374	
398	
401	
400	
409	
423	
425	
448	
403	
426	
421	
434	
410	
399	
404	
395	
430	
411	
394	
391	
435	
429	
446	
387	
439	
395	
451	
390	
451	
403	
438	
425	
419	
413	
421	
394	
401	
418	
407	
408	
449	
401	
410	
402	
430	
400	
405	
451	
384	
395	
424	
415	
430	
447	
407	
416	
407	
411	
390	
420	
429	
424	
391	
433	
408	
411	
412	
462	
388	
410	
425	
445	
391	
395	
379	
433	
443	
431	
436	
368	
388	
403	
412	
440	
377	
395	
416	
422	
422	
392	
410	
404	
434	
402	
410	
412	
383	
433	
402	
391	
398	
447	
435	
410	
453	
390	
405	
371	
443	
376	
381	
367	
408	
411	
422	
401	
423	
402	
406	
379	
402	
410	
399	
422	
395	
422	
374	
400	
403	
411	
411	
424	
443	
408	
441	
444	
415	
423	
406	
418	
416	
434	
363	
420	
422	
389	
398	
343	
409	
420	
420	
376	
401	
427	
399	
425	
423	
395	
424	
401	
398	
426	
400	
411	
369	
413	
384	
380	
393	
430	
394	
399	
395	
403	
390	
397	
385	
471	
404	
397	
402	
408	
407	
415	
394	
402	
431	
408	
400	
370	
398	
404	
418	
410	
427	
363	
408	
408	
407	
382	
425	
382	
414	
406	
404	
381	
380	
383	
413	
437	
381	
427	
374	
389	
413	
393	
395	
405	
441	
400	
388	
392	
375	
361	
408	
397	
374	
417	
402	
421	
386	
397	
389	
402	
396	
433	
390	
392	
384	
381	
338	
399	
364	
405	
402	
444	
395	
381	
395	
380	
400	
408	
397	
395	
388	
393	
402	
427	
397	
382	
388	
401	
415	
400	
398	
379	
442	
403	
393	
372	
402	
375	
389	
374	
397	
371	
404	
382	
388	
419	
376	
423	
402	
397	
405	
378	
396	
377	
376	
404	
403	
416	
401	
360	
376	
401	
376	
360	
436	
369	
447	
392	
428	
403	
407	
375	
393	
414	
393	
401	
365	
393	
382	
415	
382	
405	
411	
396	
379	
402	
397	
393	
378	
370	
425	
368	
406	
399	
352	
382	
365	
389	
403	
392	
414	
374	
419	
421	
365	
374	
404	
394	
385	
379	
404	
392	
370	
365	
427	
377	
376	
419	
354	
372	
404	
416	
