#PicoHarp 300  Histogram Data			06/01/2022 03:26:31 PM
#channels per curve
62500
#display curve no.
0	
#memory block no.
0	
#ns/channel
0.0320	
#counts
2	
4	
0	
2	
1	
4	
3	
1	
1	
0	
5	
2	
4	
2	
0	
4	
1	
3	
2	
2	
1	
5	
7	
4	
1	
2	
3	
3	
0	
5	
1	
1	
5	
1	
4	
4	
1	
4	
3	
2	
3	
4	
2	
4	
3	
1	
3	
1	
2	
3	
2	
1	
8	
0	
2	
3	
3	
3	
2	
5	
1	
3	
2	
1	
0	
2	
2	
3	
4	
1	
0	
6	
6	
1	
1	
6	
2	
3	
6	
0	
1	
3	
2	
5	
1	
5	
6	
3	
4	
3	
5	
3	
0	
2	
3	
4	
3	
4	
2	
0	
1	
4	
0	
3	
3	
6	
0	
3	
1	
5	
6	
3	
2	
4	
6	
2	
2	
7	
4	
5	
2	
2	
2	
3	
4	
3	
4	
0	
1	
4	
3	
1	
8	
3	
4	
2	
4	
1	
0	
6	
2	
2	
1	
5	
4	
2	
3	
8	
3	
1	
5	
3	
3	
7	
4	
2	
2	
2	
3	
1	
2	
5	
1	
3	
1	
4	
2	
3	
2	
7	
3	
1	
6	
4	
2	
3	
4	
6	
3	
5	
3	
4	
4	
4	
3	
3	
1	
1	
1	
0	
1	
2	
1	
3	
2	
3	
3	
3	
3	
1	
0	
1	
2	
1	
2	
4	
3	
2	
6	
4	
3	
3	
1	
3	
3	
3	
1	
2	
2	
2	
3	
5	
2	
5	
4	
1	
2	
1	
2	
3	
4	
4	
4	
2	
2	
3	
0	
2	
1	
4	
5	
1	
2	
3	
5	
2	
7	
4	
2	
1	
4	
3	
7	
2	
2	
4	
0	
4	
5	
3	
1	
4	
2	
3	
4	
3	
8	
6	
3	
1	
3	
5	
2	
0	
3	
3	
3	
4	
4	
3	
4	
2	
6	
4	
2	
0	
1	
4	
1	
4	
3	
4	
2	
2	
1	
3	
3	
2	
3	
3	
1	
2	
3	
5	
2	
2	
4	
6	
8	
2	
8	
3	
2	
3	
5	
4	
3	
5	
1	
5	
2	
2	
0	
3	
1	
3	
2	
2	
5	
5	
1	
3	
5	
3	
2	
3	
1	
3	
4	
4	
5	
1	
1	
3	
1	
4	
5	
2	
2	
0	
2	
4	
5	
3	
1	
0	
0	
2	
3	
2	
2	
1	
3	
2	
5	
4	
2	
8	
0	
2	
1	
2	
0	
4	
6	
1	
2	
3	
6	
3	
5	
2	
3	
1	
5	
2	
5	
4	
3	
1	
3	
2	
4	
2	
5	
0	
2	
5	
6	
4	
1	
0	
1	
3	
1	
5	
2	
2	
4	
5	
2	
4	
2	
3	
2	
3	
2	
2	
1	
2	
4	
3	
0	
3	
3	
2	
3	
2	
4	
2	
5	
1	
5	
3	
3	
4	
3	
0	
2	
5	
2	
4	
0	
4	
1	
3	
4	
2	
2	
1	
3	
0	
1	
2	
3	
2	
4	
2	
3	
4	
1	
3	
2	
3	
7	
5	
5	
4	
3	
0	
3	
5	
3	
3	
4	
2	
4	
1	
2	
2	
0	
4	
3	
3	
3	
0	
1	
1	
7	
4	
5	
2	
1	
4	
4	
5	
2	
4	
0	
2	
3	
3	
4	
3	
1	
1	
1	
3	
3	
1	
1	
1	
2	
2	
0	
5	
0	
3	
5	
4	
2	
0	
4	
4	
3	
0	
0	
1	
2	
1	
6	
3	
1	
1	
3	
4	
4	
1	
3	
6	
1	
3	
3	
5	
5	
3	
0	
2	
1	
4	
2	
2	
4	
1	
3	
2	
1	
6	
0	
2	
0	
0	
3	
1	
2	
5	
2	
1	
1	
2	
6	
2	
5	
4	
2	
2	
4	
1	
4	
4	
1	
2	
3	
1	
1	
2	
2	
3	
4	
2	
4	
3	
5	
4	
3	
3	
2	
1	
5	
3	
2	
3	
3	
4	
3	
3	
2	
5	
0	
1	
3	
1	
4	
1	
4	
9	
4	
1	
1	
1	
2	
2	
4	
5	
7	
8	
4	
3	
4	
3	
5	
2	
1	
3	
1	
3	
2	
4	
3	
1	
0	
1	
4	
3	
1	
2	
3	
2	
2	
1	
2	
1	
6	
2	
3	
3	
8	
4	
2	
1	
1	
2	
3	
2	
2	
4	
6	
4	
3	
1	
4	
5	
0	
2	
1	
5	
2	
5	
7	
5	
3	
6	
4	
3	
4	
1	
4	
3	
6	
2	
3	
1	
4	
1	
3	
5	
4	
5	
4	
1	
3	
4	
2	
0	
2	
3	
2	
2	
5	
1	
3	
4	
3	
2	
1	
1	
4	
5	
2	
9	
2	
2	
3	
4	
3	
4	
1	
1	
4	
2	
4	
4	
6	
2	
5	
5	
5	
1	
2	
0	
4	
8	
5	
5	
1	
5	
2	
2	
3	
1	
4	
4	
4	
4	
1	
3	
1	
6	
3	
3	
1	
5	
5	
3	
3	
4	
4	
1	
0	
2	
2	
6	
2	
2	
1	
3	
5	
2	
0	
7	
4	
3	
4	
1	
2	
3	
4	
2	
1	
5	
2	
1	
3	
0	
5	
1	
1	
2	
0	
0	
2	
7	
5	
1	
4	
3	
3	
6	
3	
2	
1	
3	
2	
2	
6	
3	
3	
5	
6	
4	
2	
3	
3	
1	
2	
6	
4	
1	
4	
3	
2	
6	
1	
1	
4	
2	
3	
3	
3	
4	
2	
1	
3	
3	
0	
4	
3	
3	
3	
1	
4	
3	
1	
2	
4	
5	
3	
1	
3	
4	
2	
0	
4	
6	
4	
1	
5	
3	
3	
2	
2	
2	
4	
5	
3	
5	
0	
3	
0	
1	
3	
1	
2	
4	
2	
5	
1	
2	
2	
2	
3	
1	
3	
1	
3	
4	
1	
3	
2	
4	
3	
4	
3	
4	
4	
0	
3	
3	
5	
1	
4	
2	
1	
3	
1	
1	
2	
3	
2	
4	
5	
1	
7	
2	
4	
4	
5	
2	
4	
5	
2	
4	
2	
1	
1	
8	
7	
2	
1	
2	
1	
5	
2	
0	
3	
2	
1	
5	
0	
2	
2	
2	
2	
4	
4	
2	
3	
1	
2	
3	
3	
3	
2	
3	
1	
8	
7	
2	
3	
6	
7	
7	
10	
14	
12	
15	
20	
21	
26	
45	
46	
60	
63	
70	
75	
132	
134	
144	
175	
232	
215	
293	
332	
424	
412	
533	
562	
671	
729	
814	
804	
907	
981	
1093	
1137	
1183	
1287	
1286	
1328	
1434	
1485	
1458	
1539	
1586	
1626	
1634	
1603	
1665	
1648	
1685	
1644	
1768	
1739	
1765	
1755	
1818	
1735	
1720	
1738	
1831	
1748	
1827	
1775	
1735	
1772	
1762	
1690	
1820	
1769	
1697	
1704	
1791	
1796	
1787	
1741	
1645	
1745	
1662	
1808	
1788	
1736	
1710	
1679	
1695	
1752	
1713	
1691	
1698	
1719	
1741	
1664	
1716	
1746	
1710	
1743	
1663	
1705	
1686	
1647	
1674	
1678	
1697	
1638	
1735	
1681	
1625	
1672	
1637	
1709	
1716	
1620	
1704	
1716	
1625	
1668	
1599	
1621	
1633	
1679	
1686	
1666	
1650	
1612	
1609	
1595	
1537	
1692	
1605	
1610	
1631	
1654	
1652	
1607	
1656	
1593	
1600	
1674	
1612	
1599	
1612	
1462	
1558	
1579	
1585	
1661	
1586	
1569	
1586	
1609	
1616	
1540	
1561	
1555	
1575	
1584	
1606	
1550	
1647	
1553	
1544	
1529	
1563	
1615	
1550	
1539	
1597	
1593	
1592	
1619	
1555	
1464	
1610	
1585	
1594	
1613	
1571	
1697	
1553	
1565	
1467	
1540	
1501	
1614	
1512	
1538	
1549	
1487	
1561	
1501	
1467	
1556	
1539	
1479	
1536	
1426	
1583	
1514	
1499	
1498	
1492	
1474	
1471	
1586	
1493	
1450	
1553	
1478	
1487	
1515	
1562	
1459	
1479	
1506	
1525	
1545	
1472	
1532	
1487	
1552	
1445	
1547	
1544	
1510	
1472	
1469	
1440	
1551	
1430	
1475	
1488	
1485	
1470	
1571	
1459	
1473	
1458	
1474	
1526	
1502	
1471	
1488	
1492	
1435	
1458	
1487	
1485	
1496	
1458	
1529	
1430	
1455	
1434	
1438	
1411	
1497	
1433	
1459	
1454	
1435	
1400	
1447	
1422	
1388	
1487	
1447	
1467	
1481	
1427	
1397	
1428	
1411	
1474	
1445	
1453	
1414	
1381	
1466	
1394	
1350	
1442	
1488	
1441	
1428	
1555	
1418	
1456	
1453	
1413	
1428	
1424	
1512	
1449	
1366	
1404	
1413	
1417	
1439	
1374	
1421	
1380	
1462	
1395	
1392	
1413	
1364	
1399	
1382	
1294	
1434	
1375	
1412	
1397	
1422	
1410	
1422	
1377	
1430	
1457	
1370	
1394	
1296	
1403	
1373	
1360	
1424	
1394	
1312	
1339	
1382	
1333	
1422	
1333	
1379	
1404	
1362	
1408	
1416	
1385	
1435	
1401	
1345	
1313	
1339	
1434	
1389	
1365	
1350	
1404	
1356	
1374	
1403	
1410	
1468	
1298	
1324	
1323	
1375	
1378	
1300	
1304	
1351	
1359	
1302	
1401	
1336	
1378	
1288	
1386	
1341	
1384	
1353	
1364	
1279	
1308	
1304	
1293	
1377	
1374	
1363	
1310	
1354	
1307	
1356	
1328	
1356	
1379	
1302	
1324	
1345	
1350	
1346	
1346	
1339	
1335	
1256	
1346	
1325	
1304	
1345	
1326	
1347	
1355	
1303	
1266	
1322	
1312	
1287	
1264	
1332	
1356	
1332	
1328	
1340	
1246	
1298	
1379	
1338	
1304	
1330	
1326	
1383	
1332	
1291	
1326	
1275	
1338	
1243	
1228	
1302	
1358	
1256	
1292	
1297	
1277	
1321	
1263	
1282	
1295	
1252	
1366	
1312	
1336	
1302	
1294	
1286	
1370	
1307	
1308	
1325	
1246	
1209	
1336	
1294	
1240	
1290	
1259	
1324	
1310	
1253	
1314	
1229	
1262	
1284	
1278	
1318	
1334	
1254	
1256	
1253	
1276	
1328	
1270	
1300	
1231	
1269	
1305	
1254	
1234	
1331	
1272	
1196	
1239	
1279	
1238	
1275	
1253	
1182	
1246	
1216	
1273	
1238	
1218	
1255	
1258	
1226	
1254	
1216	
1223	
1210	
1237	
1211	
1276	
1299	
1265	
1180	
1290	
1193	
1200	
1225	
1260	
1227	
1273	
1222	
1233	
1274	
1192	
1224	
1241	
1261	
1268	
1283	
1239	
1227	
1216	
1271	
1221	
1235	
1174	
1252	
1183	
1255	
1259	
1233	
1284	
1270	
1212	
1220	
1215	
1188	
1202	
1224	
1250	
1229	
1222	
1248	
1226	
1266	
1234	
1240	
1193	
1241	
1172	
1268	
1217	
1158	
1237	
1181	
1227	
1229	
1183	
1271	
1220	
1186	
1220	
1176	
1197	
1198	
1195	
1210	
1238	
1176	
1245	
1257	
1145	
1201	
1163	
1227	
1225	
1213	
1175	
1201	
1184	
1206	
1270	
1207	
1213	
1211	
1143	
1184	
1213	
1299	
1190	
1198	
1219	
1194	
1169	
1207	
1145	
1216	
1187	
1197	
1265	
1181	
1202	
1235	
1167	
1213	
1183	
1125	
1154	
1218	
1150	
1170	
1132	
1161	
1192	
1213	
1145	
1092	
1175	
1231	
1177	
1163	
1245	
1178	
1166	
1232	
1205	
1185	
1157	
1229	
1163	
1179	
1131	
1203	
1173	
1218	
1175	
1221	
1172	
1222	
1182	
1114	
1163	
1158	
1152	
1153	
1182	
1186	
1189	
1169	
1146	
1156	
1161	
1175	
1120	
1169	
1209	
1159	
1117	
1164	
1137	
1186	
1133	
1176	
1155	
1204	
1256	
1229	
1161	
1149	
1143	
1105	
1176	
1145	
1164	
1162	
1155	
1159	
1150	
1156	
1138	
1090	
1145	
1170	
1179	
1163	
1112	
1115	
1167	
1157	
1195	
1146	
1110	
1170	
1112	
1105	
1171	
1134	
1109	
1199	
1114	
1179	
1125	
1139	
1162	
1166	
1165	
1146	
1104	
1113	
1140	
1155	
1150	
1180	
1110	
1226	
1092	
1130	
1117	
1140	
1166	
1048	
1114	
1098	
1140	
1162	
1182	
1147	
1140	
1129	
1129	
1100	
1161	
1147	
1122	
1107	
1152	
1161	
1145	
1106	
1067	
1086	
1151	
1189	
1122	
1135	
1138	
1150	
1124	
1124	
1091	
1113	
1183	
1175	
1091	
1124	
1112	
1153	
1096	
1175	
1148	
1151	
1128	
1087	
1148	
1088	
1123	
1077	
1058	
1115	
1108	
1107	
1157	
1101	
1107	
1156	
1105	
1088	
1140	
1047	
1174	
1058	
1141	
1121	
1109	
1103	
1115	
1101	
1147	
1139	
1115	
1098	
1108	
1085	
1147	
1091	
1097	
1108	
1074	
1099	
1118	
1081	
1103	
1086	
1098	
1114	
1131	
1135	
1081	
1053	
1058	
1096	
1133	
1013	
1092	
1100	
1007	
1035	
1104	
1075	
1098	
1097	
1111	
1071	
1107	
1088	
1097	
1079	
1029	
1165	
1095	
1063	
1103	
1120	
1076	
1109	
1040	
1051	
1073	
1069	
1002	
1040	
1130	
1131	
1052	
1010	
1091	
1005	
1069	
1090	
1055	
1127	
1043	
1113	
1050	
1028	
1062	
1094	
1060	
1075	
1082	
1039	
1025	
1087	
1131	
1112	
1043	
1120	
1048	
1011	
1024	
1067	
1071	
1092	
1024	
1122	
1141	
1031	
1150	
1077	
1027	
1028	
1051	
1023	
1035	
1023	
1025	
1086	
1085	
1058	
1048	
1120	
1064	
1070	
1083	
1038	
1070	
1050	
1063	
1022	
1042	
1131	
1065	
1123	
1011	
994	
1023	
1064	
1060	
1048	
1069	
1005	
1039	
971	
1082	
1023	
1072	
1006	
1069	
1016	
1061	
978	
1082	
1067	
1063	
1076	
1081	
994	
1023	
1027	
1054	
1042	
1040	
1083	
1061	
1035	
993	
974	
1077	
1052	
1061	
1021	
1017	
1036	
1019	
1046	
1032	
982	
1007	
987	
1085	
1095	
966	
987	
1058	
1011	
1003	
1009	
1016	
1038	
1050	
1023	
1052	
1023	
991	
1057	
1029	
1041	
985	
1012	
1076	
1064	
1046	
1082	
1010	
1007	
1054	
1046	
1007	
1029	
1034	
1016	
1009	
1034	
1090	
1009	
1005	
1039	
1065	
972	
1026	
1053	
968	
1010	
1017	
1029	
1007	
1031	
1042	
1074	
998	
1016	
965	
1053	
985	
1024	
1015	
988	
1012	
1045	
1018	
980	
1008	
1012	
1038	
1066	
989	
1093	
1059	
997	
986	
1025	
1027	
1020	
996	
1032	
975	
1019	
1044	
1020	
1035	
1025	
1034	
978	
988	
1011	
1008	
964	
998	
1034	
1040	
938	
973	
986	
989	
997	
1044	
975	
965	
948	
942	
1002	
1008	
994	
911	
1030	
1030	
922	
1024	
1004	
1061	
1000	
1044	
988	
1078	
940	
985	
927	
961	
957	
944	
948	
1029	
993	
955	
955	
938	
945	
1000	
979	
961	
964	
963	
954	
1022	
916	
1001	
926	
989	
993	
1028	
985	
946	
968	
926	
990	
966	
968	
967	
1002	
976	
996	
979	
947	
1005	
944	
1018	
1021	
930	
1000	
979	
922	
984	
1026	
976	
967	
935	
952	
989	
966	
953	
1012	
998	
928	
909	
986	
943	
922	
935	
970	
977	
969	
951	
974	
992	
1008	
945	
875	
948	
928	
921	
983	
965	
935	
982	
948	
982	
983	
1041	
922	
1023	
987	
1006	
953	
927	
941	
944	
975	
895	
972	
949	
941	
971	
946	
961	
913	
941	
908	
972	
927	
972	
954	
974	
941	
903	
940	
964	
1025	
943	
956	
957	
994	
906	
965	
982	
944	
996	
948	
935	
957	
943	
909	
945	
902	
946	
900	
932	
902	
882	
989	
932	
940	
953	
930	
978	
996	
975	
891	
989	
925	
939	
920	
921	
911	
944	
958	
946	
952	
917	
931	
959	
986	
921	
921	
886	
911	
917	
981	
967	
874	
983	
903	
953	
892	
942	
886	
973	
921	
919	
959	
982	
945	
926	
926	
959	
915	
971	
935	
899	
894	
888	
934	
912	
901	
925	
999	
898	
907	
934	
908	
917	
882	
903	
915	
899	
909	
865	
953	
926	
975	
926	
886	
928	
933	
858	
914	
926	
935	
977	
956	
954	
930	
887	
917	
928	
940	
919	
900	
922	
880	
905	
898	
933	
948	
931	
958	
929	
857	
914	
896	
864	
872	
888	
884	
902	
853	
940	
890	
902	
911	
919	
863	
882	
900	
956	
909	
890	
902	
888	
940	
921	
871	
857	
925	
949	
891	
900	
868	
882	
936	
919	
863	
898	
883	
913	
872	
868	
883	
901	
883	
897	
883	
913	
922	
883	
895	
833	
863	
929	
845	
878	
895	
885	
924	
900	
822	
924	
879	
905	
894	
892	
866	
892	
850	
878	
872	
964	
897	
879	
832	
933	
906	
860	
923	
944	
896	
854	
838	
871	
868	
904	
893	
853	
881	
875	
935	
863	
878	
880	
847	
891	
881	
850	
913	
882	
876	
918	
891	
877	
817	
919	
877	
883	
853	
855	
832	
827	
825	
905	
877	
858	
929	
823	
870	
874	
859	
916	
897	
879	
866	
840	
853	
861	
879	
858	
864	
887	
892	
860	
886	
883	
873	
914	
806	
829	
838	
856	
913	
900	
843	
879	
835	
858	
861	
883	
894	
871	
880	
860	
837	
883	
820	
839	
855	
887	
847	
825	
830	
877	
895	
812	
795	
852	
842	
868	
835	
879	
796	
875	
820	
870	
903	
881	
841	
830	
903	
863	
823	
850	
897	
894	
832	
818	
820	
901	
833	
842	
814	
910	
827	
826	
910	
884	
801	
822	
822	
866	
857	
849	
869	
869	
781	
815	
828	
816	
884	
839	
841	
830	
828	
888	
818	
900	
820	
817	
852	
833	
813	
898	
849	
823	
868	
772	
876	
870	
765	
850	
875	
847	
831	
823	
853	
834	
875	
823	
859	
850	
830	
825	
805	
783	
837	
837	
875	
850	
852	
855	
803	
781	
808	
789	
796	
790	
820	
816	
841	
880	
879	
807	
805	
813	
819	
828	
822	
816	
851	
885	
791	
910	
781	
816	
839	
815	
856	
797	
862	
856	
774	
870	
821	
800	
819	
787	
783	
780	
830	
830	
830	
851	
857	
850	
808	
837	
836	
795	
818	
812	
819	
794	
833	
813	
806	
812	
804	
820	
795	
826	
712	
853	
806	
809	
750	
799	
829	
809	
813	
773	
808	
821	
763	
811	
864	
810	
763	
807	
837	
838	
738	
777	
827	
833	
802	
815	
797	
759	
816	
790	
728	
832	
849	
772	
877	
780	
813	
817	
791	
766	
805	
787	
750	
840	
811	
782	
793	
782	
839	
800	
835	
803	
807	
795	
854	
809	
867	
808	
834	
774	
773	
794	
781	
781	
831	
813	
802	
820	
802	
834	
810	
765	
782	
789	
829	
820	
769	
797	
713	
802	
784	
790	
785	
843	
818	
796	
791	
785	
777	
761	
769	
807	
786	
815	
757	
800	
778	
836	
776	
817	
781	
822	
840	
789	
807	
831	
821	
824	
792	
782	
766	
807	
821	
826	
800	
778	
816	
755	
775	
804	
786	
783	
738	
783	
803	
764	
765	
763	
777	
768	
800	
776	
786	
776	
803	
760	
761	
754	
721	
814	
815	
779	
768	
808	
802	
775	
766	
780	
781	
736	
751	
789	
768	
774	
818	
823	
741	
807	
780	
757	
785	
736	
830	
764	
810	
750	
799	
788	
740	
770	
748	
756	
754	
796	
791	
758	
784	
785	
768	
786	
746	
766	
741	
821	
719	
747	
783	
817	
767	
793	
803	
774	
791	
796	
808	
792	
831	
814	
770	
757	
771	
768	
772	
738	
790	
750	
811	
784	
733	
800	
755	
766	
750	
733	
743	
734	
785	
771	
764	
792	
775	
744	
763	
742	
722	
741	
753	
748	
738	
734	
748	
732	
772	
779	
828	
707	
763	
792	
745	
738	
758	
787	
711	
774	
770	
722	
754	
743	
746	
750	
773	
757	
770	
703	
755	
740	
745	
727	
729	
735	
716	
758	
738	
783	
748	
717	
759	
765	
726	
732	
762	
747	
754	
763	
729	
737	
743	
760	
729	
709	
769	
769	
733	
700	
783	
736	
780	
773	
749	
801	
761	
711	
799	
769	
771	
721	
767	
761	
717	
744	
724	
748	
734	
753	
745	
765	
735	
673	
744	
738	
717	
725	
766	
765	
778	
759	
721	
768	
736	
718	
768	
739	
726	
761	
705	
692	
740	
718	
721	
717	
720	
752	
723	
747	
728	
725	
787	
700	
737	
727	
670	
671	
699	
760	
731	
725	
764	
760	
743	
734	
670	
743	
713	
727	
719	
700	
706	
718	
761	
707	
757	
714	
746	
756	
744	
758	
702	
691	
711	
748	
774	
731	
743	
712	
743	
781	
711	
710	
657	
771	
722	
725	
754	
698	
685	
704	
736	
764	
748	
728	
765	
710	
728	
749	
710	
741	
710	
762	
708	
683	
702	
712	
690	
690	
704	
708	
714	
700	
709	
698	
719	
723	
743	
738	
710	
723	
756	
744	
667	
707	
731	
731	
766	
702	
750	
694	
700	
707	
727	
730	
747	
764	
745	
700	
714	
692	
702	
679	
752	
716	
771	
719	
717	
698	
696	
685	
703	
762	
756	
733	
711	
731	
756	
708	
690	
696	
735	
730	
727	
689	
651	
694	
700	
696	
739	
710	
693	
711	
699	
673	
734	
662	
752	
679	
719	
701	
704	
700	
663	
736	
731	
714	
723	
704	
660	
699	
688	
671	
707	
719	
722	
702	
698	
706	
707	
693	
702	
686	
711	
701	
717	
664	
672	
734	
718	
683	
692	
664	
697	
702	
696	
688	
697	
719	
651	
684	
721	
727	
748	
724	
683	
706	
691	
715	
687	
719	
729	
697	
697	
670	
716	
675	
722	
677	
688	
675	
719	
652	
740	
683	
679	
723	
709	
689	
666	
625	
721	
661	
673	
666	
739	
611	
724	
725	
661	
739	
695	
666	
713	
709	
690	
723	
697	
660	
648	
687	
670	
674	
737	
684	
699	
674	
690	
656	
670	
669	
686	
698	
667	
687	
695	
663	
662	
687	
696	
654	
627	
669	
685	
703	
676	
672	
681	
680	
666	
684	
671	
654	
658	
689	
698	
690	
733	
679	
695	
671	
685	
708	
662	
645	
653	
693	
679	
688	
640	
656	
692	
711	
656	
653	
690	
664	
707	
661	
723	
714	
728	
688	
699	
690	
684	
708	
676	
695	
695	
649	
634	
659	
652	
639	
643	
695	
649	
651	
646	
685	
622	
651	
637	
683	
661	
672	
687	
647	
684	
642	
633	
644	
689	
680	
692	
670	
609	
616	
696	
666	
668	
673	
669	
655	
707	
638	
654	
665	
647	
659	
625	
704	
680	
657	
671	
654	
682	
662	
695	
689	
638	
648	
659	
735	
618	
644	
636	
645	
617	
679	
614	
693	
653	
660	
705	
605	
657	
666	
640	
641	
659	
664	
633	
604	
667	
696	
617	
675	
632	
605	
640	
635	
611	
661	
653	
659	
653	
667	
623	
659	
672	
716	
656	
677	
647	
685	
664	
672	
632	
628	
670	
617	
661	
615	
668	
665	
660	
632	
687	
694	
682	
658	
645	
660	
603	
660	
676	
639	
654	
679	
643	
648	
633	
665	
640	
707	
612	
612	
632	
611	
649	
600	
644	
676	
653	
577	
646	
696	
635	
631	
671	
639	
651	
648	
677	
635	
695	
622	
664	
639	
633	
624	
589	
722	
627	
629	
625	
627	
682	
629	
646	
660	
670	
688	
656	
684	
661	
647	
642	
646	
666	
643	
665	
599	
668	
643	
630	
628	
586	
635	
661	
613	
606	
638	
600	
618	
603	
651	
636	
623	
668	
635	
637	
605	
610	
634	
635	
665	
578	
665	
577	
654	
638	
597	
639	
634	
612	
667	
609	
595	
637	
618	
651	
626	
636	
612	
626	
669	
595	
661	
685	
643	
651	
657	
649	
594	
624	
688	
599	
649	
644	
663	
645	
648	
641	
608	
653	
622	
647	
603	
660	
634	
618	
643	
601	
635	
563	
588	
651	
611	
636	
611	
611	
584	
594	
613	
641	
658	
596	
649	
571	
639	
647	
590	
587	
591	
568	
614	
644	
592	
608	
652	
658	
613	
607	
656	
627	
679	
632	
611	
644	
612	
585	
623	
609	
609	
602	
607	
562	
597	
574	
628	
637	
618	
560	
643	
619	
585	
591	
589	
605	
640	
590	
593	
615	
586	
597	
645	
631	
615	
624	
606	
639	
629	
633	
642	
630	
585	
649	
590	
630	
626	
548	
597	
559	
592	
640	
651	
660	
634	
573	
601	
571	
592	
606	
650	
588	
594	
593	
668	
583	
626	
652	
605	
607	
599	
548	
626	
633	
591	
622	
609	
590	
610	
576	
567	
577	
603	
595	
589	
614	
620	
616	
628	
572	
644	
584	
612	
569	
579	
601	
583	
644	
597	
560	
593	
639	
584	
609	
595	
597	
619	
633	
608	
577	
634	
583	
605	
601	
578	
601	
613	
595	
564	
614	
609	
582	
593	
597	
584	
600	
591	
596	
619	
623	
570	
571	
605	
626	
609	
599	
550	
608	
546	
584	
614	
635	
583	
592	
644	
585	
597	
571	
602	
580	
597	
656	
525	
619	
599	
592	
584	
569	
618	
573	
632	
563	
594	
547	
551	
574	
557	
618	
558	
620	
548	
558	
564	
619	
584	
565	
578	
591	
579	
578	
590	
596	
559	
583	
584	
572	
568	
583	
593	
591	
618	
575	
611	
609	
596	
574	
617	
570	
568	
607	
615	
585	
605	
600	
577	
571	
580	
580	
573	
588	
583	
578	
585	
631	
607	
573	
616	
613	
588	
551	
587	
540	
560	
573	
579	
624	
575	
579	
533	
575	
555	
572	
564	
544	
598	
610	
576	
599	
572	
574	
572	
569	
573	
583	
543	
595	
595	
595	
628	
585	
568	
614	
525	
633	
532	
574	
600	
541	
600	
608	
576	
527	
601	
593	
562	
618	
579	
553	
555	
633	
563	
546	
562	
600	
540	
567	
594	
602	
570	
547	
568	
607	
571	
625	
570	
634	
520	
568	
545	
591	
564	
581	
595	
537	
589	
571	
602	
544	
554	
580	
579	
557	
543	
564	
593	
558	
566	
546	
531	
578	
588	
603	
556	
533	
554	
566	
505	
569	
535	
559	
547	
556	
572	
553	
600	
549	
559	
523	
555	
550	
518	
530	
551	
591	
553	
564	
522	
567	
582	
560	
563	
566	
575	
590	
574	
559	
524	
561	
587	
602	
560	
601	
585	
578	
545	
530	
520	
600	
554	
565	
584	
572	
573	
551	
550	
566	
554	
551	
541	
526	
539	
561	
588	
572	
533	
569	
507	
566	
526	
564	
563	
567	
577	
572	
568	
577	
568	
527	
574	
588	
554	
541	
550	
536	
529	
556	
524	
528	
557	
546	
559	
567	
506	
499	
544	
573	
545	
544	
568	
573	
562	
521	
565	
541	
520	
547	
504	
550	
563	
527	
549	
509	
538	
530	
540	
558	
547	
538	
528	
527	
548	
541	
567	
521	
571	
557	
544	
556	
563	
550	
513	
556	
574	
538	
556	
571	
558	
582	
535	
553	
565	
534	
538	
533	
532	
560	
537	
564	
554	
544	
544	
584	
572	
529	
523	
578	
545	
543	
531	
548	
544	
551	
525	
561	
558	
527	
569	
557	
553	
509	
522	
558	
568	
529	
535	
571	
512	
535	
500	
526	
560	
530	
545	
541	
536	
508	
523	
547	
521	
500	
601	
521	
507	
548	
554	
600	
538	
528	
569	
511	
544	
549	
512	
535	
590	
534	
546	
548	
517	
529	
530	
532	
561	
566	
552	
491	
497	
514	
518	
526	
543	
549	
571	
561	
572	
549	
507	
550	
530	
540	
537	
599	
538	
529	
540	
530	
525	
499	
544	
570	
526	
577	
541	
530	
471	
530	
522	
533	
515	
565	
501	
500	
540	
556	
508	
549	
517	
530	
518	
491	
537	
501	
513	
532	
540	
502	
525	
540	
521	
523	
548	
545	
571	
514	
545	
581	
527	
521	
529	
539	
576	
509	
530	
495	
551	
524	
501	
519	
505	
551	
509	
568	
572	
534	
518	
511	
517	
518	
502	
517	
534	
534	
538	
527	
515	
522	
500	
498	
521	
461	
511	
548	
530	
510	
532	
496	
535	
520	
514	
509	
541	
487	
521	
531	
503	
513	
515	
541	
506	
543	
531	
545	
521	
475	
545	
490	
501	
520	
539	
556	
486	
502	
529	
573	
503	
524	
491	
562	
498	
482	
516	
518	
521	
473	
472	
512	
500	
566	
481	
518	
514	
521	
510	
527	
515	
523	
507	
487	
493	
508	
557	
452	
486	
525	
536	
499	
538	
493	
487	
514	
469	
520	
497	
522	
513	
502	
508	
492	
541	
513	
506	
511	
525	
505	
484	
502	
461	
524	
520	
521	
520	
521	
496	
506	
483	
511	
496	
555	
512	
511	
497	
535	
476	
512	
490	
509	
526	
557	
541	
511	
522	
499	
525	
490	
541	
528	
526	
513	
454	
497	
467	
490	
507	
547	
546	
494	
484	
506	
510	
493	
562	
500	
500	
500	
489	
479	
492	
472	
504	
463	
493	
488	
487	
491	
513	
472	
510	
491	
467	
493	
514	
497	
510	
485	
496	
492	
508	
473	
448	
472	
474	
469	
532	
456	
499	
496	
510	
467	
494	
468	
502	
495	
543	
508	
461	
495	
488	
488	
476	
531	
489	
500	
481	
542	
501	
505	
531	
538	
526	
555	
517	
514	
479	
458	
495	
516	
496	
497	
488	
472	
447	
496	
525	
510	
491	
526	
479	
486	
473	
477	
511	
541	
448	
475	
522	
467	
501	
478	
503	
487	
449	
480	
508	
484	
442	
484	
485	
503	
449	
451	
460	
471	
490	
474	
438	
549	
520	
477	
454	
461	
492	
488	
493	
458	
502	
490	
499	
523	
522	
482	
466	
540	
473	
469	
524	
480	
453	
525	
470	
481	
457	
526	
524	
520	
474	
519	
493	
471	
461	
445	
477	
483	
487	
451	
501	
496	
481	
452	
438	
469	
471	
532	
487	
462	
472	
475	
477	
471	
480	
507	
446	
502	
431	
466	
484	
478	
479	
513	
494	
475	
473	
454	
493	
503	
464	
502	
494	
504	
477	
508	
465	
493	
482	
462	
460	
497	
500	
495	
504	
510	
467	
472	
496	
449	
486	
463	
483	
474	
487	
463	
511	
483	
454	
466	
446	
471	
454	
511	
485	
503	
463	
445	
473	
486	
462	
474	
443	
498	
457	
489	
478	
506	
522	
514	
492	
480	
495	
491	
452	
497	
449	
486	
439	
469	
476	
493	
469	
472	
522	
472	
470	
492	
458	
481	
457	
454	
448	
436	
472	
431	
520	
519	
436	
498	
469	
490	
453	
450	
463	
470	
497	
452	
448	
451	
446	
454	
445	
446	
479	
475	
465	
458	
459	
478	
476	
402	
498	
476	
450	
473	
481	
459	
442	
450	
438	
480	
441	
487	
464	
471	
440	
474	
478	
468	
476	
508	
466	
452	
444	
427	
444	
471	
423	
510	
433	
461	
446	
457	
471	
479	
463	
474	
484	
482	
489	
490	
471	
451	
449	
463	
438	
470	
493	
459	
436	
463	
436	
453	
448	
485	
466	
474	
441	
493	
467	
471	
425	
491	
454	
450	
467	
440	
474	
455	
467	
421	
490	
468	
459	
486	
473	
444	
478	
452	
432	
474	
469	
462	
436	
438	
457	
453	
426	
448	
439	
454	
459	
460	
453	
423	
435	
471	
475	
444	
437	
440	
465	
457	
434	
442	
457	
453	
463	
475	
428	
463	
482	
443	
452	
465	
424	
451	
461	
449	
473	
459	
447	
424	
477	
461	
450	
454	
480	
454	
437	
447	
418	
465	
431	
455	
473	
458	
478	
433	
457	
454	
452	
406	
445	
483	
462	
435	
447	
441	
461	
422	
451	
480	
442	
440	
425	
459	
444	
450	
491	
458	
431	
451	
442	
446	
449	
450	
459	
429	
462	
427	
495	
444	
467	
453	
433	
437	
453	
436	
437	
459	
462	
426	
440	
427	
468	
442	
432	
447	
442	
481	
463	
432	
457	
442	
402	
476	
443	
438	
441	
428	
436	
431	
442	
460	
450	
448	
430	
473	
409	
463	
413	
430	
425	
432	
467	
459	
436	
432	
431	
431	
413	
412	
444	
444	
434	
429	
463	
438	
462	
437	
434	
450	
430	
488	
447	
480	
432	
463	
413	
439	
443	
444	
472	
430	
454	
410	
445	
450	
423	
459	
433	
452	
465	
428	
438	
440	
441	
431	
455	
454	
433	
416	
485	
458	
449	
467	
439	
444	
449	
383	
442	
418	
466	
450	
414	
418	
438	
433	
435	
420	
445	
451	
449	
447	
464	
422	
405	
445	
414	
436	
428	
399	
411	
454	
462	
459	
402	
440	
443	
444	
449	
453	
427	
416	
413	
396	
456	
451	
383	
445	
404	
431	
443	
409	
420	
411	
431	
455	
443	
421	
433	
424	
413	
419	
496	
443	
423	
428	
419	
432	
420	
395	
443	
396	
439	
450	
456	
459	
424	
445	
396	
405	
431	
413	
420	
419	
442	
428	
428	
457	
436	
472	
426	
428	
447	
423	
426	
417	
379	
426	
435	
431	
451	
439	
392	
397	
397	
444	
439	
426	
378	
413	
419	
420	
430	
428	
419	
428	
446	
420	
441	
445	
450	
418	
382	
420	
428	
427	
422	
429	
388	
444	
444	
418	
475	
389	
463	
430	
414	
462	
392	
448	
431	
430	
423	
438	
456	
411	
413	
441	
397	
383	
389	
382	
413	
424	
378	
431	
402	
421	
403	
435	
420	
433	
423	
438	
420	
402	
396	
416	
404	
402	
450	
449	
416	
403	
420	
434	
415	
427	
417	
402	
415	
442	
409	
428	
441	
445	
452	
405	
412	
423	
361	
379	
440	
457	
468	
410	
406	
416	
422	
425	
407	
404	
427	
451	
462	
421	
433	
457	
426	
369	
433	
418	
455	
424	
408	
445	
403	
395	
411	
424	
400	
447	
408	
427	
428	
406	
389	
399	
409	
377	
417	
408	
397	
409	
455	
392	
399	
442	
440	
431	
403	
392	
397	
440	
403	
418	
434	
409	
414	
405	
387	
423	
426	
400	
441	
433	
420	
416	
386	
409	
438	
400	
388	
406	
413	
427	
385	
411	
426	
435	
453	
385	
422	
401	
396	
407	
430	
420	
395	
397	
414	
394	
387	
412	
450	
411	
428	
396	
437	
421	
401	
414	
422	
413	
385	
399	
424	
404	
400	
423	
432	
388	
404	
407	
395	
441	
416	
423	
403	
370	
409	
406	
387	
404	
425	
374	
431	
437	
373	
414	
391	
420	
400	
388	
432	
414	
400	
418	
400	
410	
375	
414	
397	
428	
395	
386	
380	
409	
407	
376	
410	
413	
411	
420	
430	
379	
379	
385	
388	
405	
409	
386	
403	
409	
400	
438	
432	
438	
412	
396	
398	
381	
413	
434	
415	
405	
401	
420	
384	
382	
413	
393	
409	
394	
400	
424	
375	
400	
417	
406	
388	
419	
353	
398	
371	
406	
418	
378	
421	
393	
421	
396	
384	
420	
388	
392	
386	
379	
389	
408	
383	
387	
370	
394	
430	
417	
403	
404	
429	
402	
384	
399	
404	
408	
391	
384	
413	
414	
392	
353	
418	
399	
401	
407	
405	
391	
396	
397	
396	
388	
385	
395	
394	
374	
386	
394	
391	
415	
406	
380	
382	
382	
400	
427	
393	
390	
381	
375	
367	
390	
403	
413	
379	
383	
368	
389	
386	
382	
393	
413	
376	
383	
406	
387	
383	
416	
392	
398	
378	
370	
354	
392	
300	
349	
385	
363	
388	
361	
361	
402	
402	
395	
383	
368	
419	
366	
400	
340	
362	
394	
438	
390	
415	
406	
416	
377	
378	
361	
372	
350	
394	
410	
398	
422	
392	
374	
389	
400	
356	
377	
419	
380	
388	
408	
363	
406	
379	
429	
387	
392	
366	
408	
405	
375	
395	
394	
364	
411	
374	
396	
397	
404	
357	
409	
366	
356	
406	
357	
412	
376	
396	
395	
449	
426	
392	
390	
368	
385	
383	
412	
412	
367	
399	
365	
382	
399	
395	
373	
339	
349	
391	
387	
380	
342	
422	
394	
342	
395	
352	
395	
353	
363	
378	
363	
390	
393	
363	
391	
379	
375	
409	
368	
356	
389	
398	
416	
388	
374	
357	
381	
361	
367	
390	
367	
382	
364	
363	
390	
411	
377	
384	
405	
369	
380	
401	
387	
342	
374	
354	
384	
355	
385	
367	
353	
321	
360	
358	
346	
362	
382	
414	
356	
371	
361	
368	
420	
382	
358	
363	
379	
336	
407	
384	
370	
389	
392	
425	
347	
416	
395	
365	
381	
387	
381	
361	
370	
412	
409	
389	
377	
387	
385	
385	
391	
362	
363	
370	
414	
377	
396	
364	
336	
357	
362	
360	
356	
350	
360	
402	
382	
365	
371	
418	
382	
369	
374	
381	
382	
372	
352	
361	
385	
392	
351	
378	
380	
391	
369	
357	
389	
400	
349	
386	
389	
333	
357	
379	
352	
353	
388	
397	
354	
420	
386	
395	
382	
361	
333	
381	
361	
361	
359	
365	
388	
358	
342	
380	
360	
354	
371	
395	
331	
362	
375	
337	
336	
390	
376	
357	
335	
343	
341	
351	
344	
382	
352	
363	
375	
361	
333	
388	
376	
389	
316	
373	
368	
361	
364	
366	
346	
365	
372	
364	
387	
395	
339	
356	
353	
381	
368	
373	
374	
357	
360	
381	
353	
351	
374	
412	
363	
353	
369	
356	
359	
372	
348	
374	
332	
412	
364	
327	
355	
400	
331	
370	
387	
374	
326	
356	
350	
345	
346	
307	
352	
348	
320	
378	
392	
353	
346	
348	
382	
329	
372	
340	
360	
339	
332	
330	
377	
377	
368	
329	
347	
344	
348	
377	
336	
354	
378	
380	
342	
412	
360	
390	
346	
388	
351	
334	
342	
356	
348	
394	
382	
371	
316	
359	
365	
345	
364	
375	
344	
364	
357	
345	
350	
379	
344	
338	
345	
356	
341	
316	
385	
380	
327	
368	
364	
383	
344	
366	
353	
347	
359	
346	
348	
361	
362	
362	
353	
366	
365	
354	
337	
398	
362	
354	
360	
343	
363	
357	
353	
354	
333	
357	
348	
350	
343	
318	
361	
407	
360	
330	
363	
357	
382	
368	
357	
341	
343	
349	
349	
310	
375	
357	
359	
374	
374	
315	
363	
380	
381	
328	
390	
356	
341	
338	
362	
365	
359	
348	
366	
330	
317	
351	
348	
375	
337	
346	
358	
313	
359	
352	
350	
363	
354	
361	
338	
337	
368	
348	
355	
376	
370	
373	
358	
354	
356	
329	
352	
360	
352	
341	
356	
322	
313	
330	
369	
356	
317	
345	
332	
330	
367	
357	
354	
304	
341	
348	
366	
379	
342	
330	
326	
366	
335	
364	
305	
342	
318	
343	
357	
322	
340	
384	
382	
346	
325	
344	
344	
365	
362	
329	
326	
374	
338	
334	
314	
362	
351	
343	
355	
372	
340	
318	
365	
349	
342	
343	
351	
364	
376	
333	
342	
338	
330	
330	
346	
346	
301	
352	
368	
329	
347	
330	
377	
356	
341	
319	
365	
357	
303	
305	
331	
354	
354	
318	
382	
325	
336	
320	
347	
367	
350	
374	
335	
347	
361	
341	
373	
359	
355	
313	
346	
346	
330	
360	
342	
318	
327	
322	
356	
330	
334	
335	
357	
304	
331	
345	
348	
358	
325	
346	
339	
334	
346	
362	
321	
339	
336	
338	
306	
312	
331	
342	
331	
308	
355	
361	
334	
340	
308	
337	
349	
331	
313	
342	
309	
345	
386	
319	
338	
335	
348	
357	
353	
321	
326	
313	
324	
317	
359	
320	
339	
354	
322	
333	
329	
342	
361	
341	
337	
315	
350	
329	
303	
358	
326	
318	
327	
334	
334	
317	
328	
294	
357	
348	
355	
328	
321	
337	
318	
332	
330	
336	
341	
364	
325	
313	
321	
347	
365	
326	
340	
367	
321	
330	
344	
323	
307	
343	
332	
341	
342	
328	
379	
330	
320	
322	
324	
306	
328	
318	
314	
309	
294	
312	
335	
324	
320	
358	
343	
309	
282	
292	
312	
313	
378	
339	
316	
305	
336	
333	
328	
345	
332	
325	
317	
323	
297	
308	
297	
313	
315	
309	
288	
304	
330	
329	
311	
337	
314	
326	
328	
332	
288	
326	
310	
324	
335	
292	
335	
318	
311	
332	
352	
338	
325	
356	
324	
285	
285	
320	
306	
308	
322	
307	
324	
327	
341	
323	
337	
288	
328	
332	
335	
337	
313	
323	
336	
341	
321	
358	
293	
348	
322	
303	
318	
364	
323	
348	
298	
356	
322	
323	
327	
323	
317	
290	
323	
340	
335	
324	
313	
353	
309	
302	
346	
327	
294	
308	
299	
335	
320	
328	
326	
343	
349	
331	
344	
360	
322	
295	
299	
322	
337	
309	
347	
312	
354	
296	
321	
329	
313	
305	
331	
304	
333	
331	
360	
326	
352	
326	
317	
322	
321	
337	
303	
305	
332	
281	
344	
315	
322	
302	
303	
307	
307	
300	
328	
330	
340	
329	
319	
288	
335	
335	
325	
308	
305	
315	
301	
299	
337	
319	
339	
277	
304	
312	
347	
343	
356	
316	
321	
315	
319	
319	
314	
311	
289	
327	
300	
325	
309	
321	
325	
329	
329	
305	
308	
314	
312	
293	
309	
324	
328	
282	
311	
310	
297	
335	
311	
