#PicoHarp 300  Histogram Data			06/01/2022 03:40:45 PM
#channels per curve
62500
#display curve no.
0	
#memory block no.
0	
#ns/channel
0.0320	
#counts
0	
2	
2	
6	
0	
0	
1	
2	
0	
0	
3	
1	
2	
0	
0	
3	
1	
1	
3	
2	
0	
3	
0	
2	
0	
0	
2	
1	
2	
4	
1	
2	
2	
1	
1	
0	
2	
1	
4	
1	
2	
3	
1	
2	
1	
1	
1	
1	
3	
0	
0	
2	
1	
2	
1	
4	
3	
3	
2	
0	
3	
0	
1	
1	
0	
1	
1	
1	
1	
0	
1	
1	
1	
3	
1	
0	
1	
2	
0	
0	
2	
2	
4	
3	
1	
1	
1	
1	
3	
2	
2	
2	
1	
0	
1	
3	
3	
2	
4	
0	
1	
2	
2	
0	
2	
1	
2	
4	
1	
0	
1	
2	
3	
1	
3	
1	
3	
3	
0	
0	
1	
1	
1	
2	
1	
3	
2	
1	
1	
3	
1	
0	
1	
2	
1	
1	
1	
2	
1	
0	
2	
2	
0	
3	
2	
0	
1	
0	
4	
1	
1	
3	
0	
3	
1	
0	
0	
1	
0	
2	
1	
1	
0	
0	
0	
0	
1	
0	
2	
2	
1	
1	
1	
2	
1	
2	
3	
4	
2	
2	
2	
2	
2	
1	
4	
2	
1	
2	
4	
0	
2	
1	
0	
3	
4	
2	
0	
2	
2	
4	
2	
1	
1	
0	
3	
1	
0	
1	
1	
2	
2	
2	
2	
2	
3	
1	
1	
2	
0	
2	
2	
0	
1	
0	
2	
1	
1	
3	
2	
0	
3	
3	
4	
1	
1	
2	
0	
0	
2	
1	
1	
0	
1	
0	
2	
1	
3	
2	
1	
3	
1	
1	
0	
3	
1	
0	
0	
2	
1	
1	
1	
1	
0	
0	
0	
1	
0	
5	
2	
2	
1	
2	
1	
0	
1	
2	
0	
2	
0	
1	
1	
2	
0	
1	
2	
2	
1	
2	
0	
3	
3	
2	
1	
1	
0	
1	
4	
1	
3	
2	
1	
1	
0	
0	
3	
1	
1	
6	
0	
3	
1	
2	
1	
0	
1	
1	
0	
1	
2	
1	
2	
0	
2	
1	
3	
1	
4	
2	
0	
0	
2	
2	
3	
1	
2	
2	
4	
1	
2	
0	
0	
1	
1	
0	
0	
0	
4	
1	
3	
2	
2	
0	
1	
1	
2	
4	
1	
2	
1	
2	
3	
1	
1	
0	
3	
1	
4	
3	
2	
1	
2	
1	
0	
3	
0	
3	
0	
0	
2	
2	
3	
0	
2	
0	
0	
0	
2	
1	
0	
0	
0	
1	
3	
1	
1	
0	
2	
1	
1	
1	
1	
2	
3	
2	
3	
0	
0	
1	
0	
1	
1	
1	
0	
0	
0	
1	
0	
1	
2	
0	
4	
3	
0	
2	
0	
0	
3	
3	
1	
0	
0	
1	
3	
0	
1	
0	
5	
1	
1	
0	
1	
0	
1	
1	
0	
0	
1	
0	
2	
1	
2	
0	
1	
1	
1	
0	
1	
3	
0	
1	
0	
1	
1	
1	
2	
0	
3	
2	
1	
0	
1	
0	
0	
1	
0	
2	
1	
1	
0	
1	
1	
1	
1	
4	
2	
1	
1	
2	
3	
2	
0	
2	
1	
3	
0	
2	
2	
2	
0	
1	
2	
1	
1	
1	
1	
1	
1	
3	
1	
1	
0	
2	
2	
1	
0	
3	
2	
1	
2	
5	
1	
3	
2	
1	
0	
3	
0	
0	
6	
0	
2	
2	
1	
0	
0	
2	
2	
3	
0	
2	
1	
3	
1	
0	
0	
2	
1	
1	
4	
3	
3	
1	
2	
1	
2	
1	
1	
2	
2	
4	
2	
3	
0	
1	
0	
1	
1	
1	
0	
3	
0	
4	
1	
0	
3	
2	
0	
1	
3	
1	
0	
1	
1	
1	
4	
4	
0	
0	
1	
1	
1	
1	
2	
1	
2	
1	
2	
0	
1	
1	
2	
1	
2	
2	
2	
2	
0	
1	
0	
0	
0	
5	
1	
2	
0	
1	
2	
3	
2	
4	
0	
0	
3	
1	
1	
2	
1	
4	
0	
0	
3	
1	
1	
0	
0	
4	
2	
3	
2	
1	
2	
7	
0	
3	
0	
4	
1	
1	
0	
2	
1	
3	
0	
3	
0	
1	
2	
2	
0	
2	
1	
1	
1	
3	
1	
1	
1	
2	
1	
0	
0	
1	
1	
1	
2	
3	
2	
1	
1	
1	
0	
2	
3	
1	
1	
0	
1	
0	
0	
0	
0	
0	
2	
2	
3	
1	
1	
1	
1	
1	
1	
1	
2	
2	
0	
1	
2	
3	
4	
1	
0	
2	
0	
1	
4	
2	
1	
2	
0	
1	
0	
1	
3	
0	
2	
1	
1	
2	
1	
1	
1	
2	
0	
2	
0	
1	
1	
1	
1	
0	
1	
1	
0	
2	
2	
1	
0	
2	
2	
1	
0	
1	
2	
0	
2	
3	
0	
0	
0	
4	
0	
0	
0	
2	
1	
2	
0	
1	
1	
1	
0	
2	
0	
2	
2	
0	
0	
0	
3	
1	
0	
4	
2	
1	
1	
0	
0	
1	
0	
1	
0	
0	
2	
1	
5	
0	
2	
1	
0	
3	
2	
5	
1	
0	
1	
2	
0	
2	
2	
1	
1	
1	
0	
1	
2	
4	
0	
1	
2	
2	
1	
2	
3	
0	
1	
0	
0	
0	
3	
0	
1	
2	
0	
1	
1	
3	
2	
1	
1	
2	
1	
3	
3	
2	
1	
2	
1	
0	
2	
1	
1	
0	
1	
3	
0	
2	
1	
0	
0	
0	
3	
0	
0	
1	
1	
0	
0	
2	
2	
0	
2	
3	
4	
0	
0	
0	
2	
1	
1	
0	
0	
1	
1	
3	
1	
4	
1	
2	
3	
2	
0	
1	
4	
2	
3	
2	
2	
1	
2	
3	
0	
1	
2	
1	
1	
1	
0	
0	
2	
1	
1	
1	
0	
2	
1	
1	
0	
3	
1	
0	
2	
2	
3	
2	
1	
2	
0	
1	
1	
4	
1	
1	
1	
0	
1	
4	
0	
1	
2	
3	
0	
1	
0	
0	
2	
2	
4	
1	
0	
1	
1	
3	
2	
2	
1	
1	
1	
2	
0	
3	
0	
0	
1	
2	
3	
1	
3	
2	
1	
1	
2	
3	
2	
2	
0	
3	
11	
8	
7	
13	
10	
28	
14	
14	
26	
26	
30	
43	
56	
52	
69	
78	
94	
107	
129	
125	
158	
165	
177	
181	
197	
221	
253	
238	
261	
268	
276	
252	
265	
272	
286	
307	
304	
290	
281	
298	
282	
275	
289	
273	
257	
277	
282	
269	
296	
271	
295	
287	
289	
276	
255	
277	
254	
267	
278	
248	
260	
266	
281	
243	
269	
252	
247	
266	
277	
267	
297	
253	
244	
275	
260	
225	
252	
260	
261	
254	
247	
248	
232	
234	
217	
277	
257	
230	
237	
266	
253	
271	
241	
225	
239	
242	
242	
228	
253	
248	
239	
233	
269	
230	
246	
260	
219	
254	
270	
260	
234	
248	
242	
260	
247	
241	
269	
238	
235	
244	
220	
249	
244	
235	
252	
240	
236	
227	
249	
253	
246	
234	
250	
283	
239	
231	
235	
218	
252	
259	
268	
239	
206	
218	
237	
218	
238	
233	
231	
224	
216	
251	
234	
230	
229	
229	
223	
223	
239	
241	
249	
242	
219	
210	
228	
212	
223	
243	
235	
228	
234	
240	
229	
235	
226	
254	
223	
262	
275	
219	
240	
254	
234	
242	
204	
235	
230	
227	
253	
238	
230	
206	
242	
222	
256	
221	
206	
219	
238	
219	
218	
236	
222	
212	
220	
239	
228	
240	
201	
214	
236	
223	
221	
227	
222	
251	
230	
204	
224	
225	
200	
213	
218	
222	
216	
231	
245	
236	
249	
209	
213	
220	
235	
233	
219	
250	
205	
226	
206	
228	
209	
211	
239	
241	
223	
228	
218	
240	
224	
220	
204	
220	
191	
211	
239	
193	
230	
220	
214	
244	
215	
208	
211	
235	
222	
240	
231	
230	
242	
247	
257	
207	
215	
232	
249	
220	
221	
224	
209	
232	
215	
220	
194	
227	
207	
214	
215	
244	
219	
217	
222	
213	
201	
216	
229	
237	
236	
189	
216	
212	
220	
230	
220	
214	
237	
206	
204	
210	
224	
214	
212	
243	
208	
212	
195	
224	
218	
245	
210	
202	
233	
195	
220	
230	
219	
206	
240	
235	
234	
227	
204	
229	
204	
201	
227	
221	
208	
209	
244	
212	
207	
218	
181	
210	
230	
220	
194	
200	
205	
193	
212	
232	
233	
214	
204	
232	
223	
224	
192	
178	
221	
219	
191	
211	
210	
204	
193	
206	
197	
228	
221	
203	
233	
224	
194	
211	
229	
189	
209	
188	
213	
236	
185	
209	
222	
195	
211	
203	
231	
184	
200	
198	
206	
188	
205	
189	
186	
224	
197	
219	
200	
212	
201	
218	
199	
219	
205	
215	
201	
204	
204	
215	
194	
192	
217	
230	
200	
209	
230	
208	
199	
237	
200	
182	
202	
194	
206	
216	
203	
207	
198	
200	
201	
167	
206	
205	
218	
196	
221	
212	
202	
218	
205	
192	
174	
193	
191	
238	
192	
206	
205	
211	
207	
177	
221	
199	
202	
185	
201	
207	
188	
176	
205	
195	
189	
194	
196	
199	
203	
200	
222	
225	
232	
208	
189	
211	
198	
183	
202	
193	
206	
204	
198	
223	
209	
215	
200	
158	
198	
200	
185	
206	
213	
221	
179	
212	
178	
197	
221	
182	
204	
184	
212	
206	
198	
191	
212	
210	
194	
207	
206	
202	
195	
188	
198	
181	
216	
197	
204	
202	
211	
227	
202	
178	
211	
188	
195	
184	
184	
202	
214	
194	
216	
193	
193	
192	
201	
204	
166	
196	
187	
222	
212	
199	
230	
178	
186	
209	
169	
195	
223	
205	
205	
198	
200	
208	
177	
180	
181	
182	
209	
202	
204	
208	
201	
203	
193	
192	
186	
183	
204	
204	
188	
205	
197	
168	
181	
173	
199	
195	
177	
168	
196	
204	
183	
186	
187	
189	
184	
217	
177	
175	
170	
194	
185	
195	
201	
177	
189	
174	
187	
180	
191	
197	
206	
179	
183	
200	
187	
188	
185	
181	
161	
184	
182	
186	
188	
206	
207	
174	
181	
198	
213	
201	
201	
190	
218	
189	
206	
197	
196	
174	
215	
185	
176	
202	
172	
182	
205	
160	
189	
176	
202	
195	
202	
190	
193	
205	
184	
225	
187	
172	
186	
192	
181	
186	
187	
182	
195	
192	
177	
199	
196	
206	
203	
165	
209	
201	
193	
190	
205	
182	
171	
206	
202	
201	
184	
180	
194	
171	
187	
181	
188	
189	
171	
192	
151	
178	
187	
168	
210	
178	
208	
207	
179	
161	
175	
182	
178	
172	
173	
173	
174	
144	
195	
189	
176	
178	
182	
165	
184	
168	
199	
184	
187	
182	
174	
171	
183	
184	
189	
173	
203	
178	
196	
180	
164	
183	
197	
180	
207	
175	
188	
182	
198	
209	
173	
178	
173	
169	
191	
183	
178	
185	
173	
182	
193	
159	
195	
162	
193	
185	
167	
191	
176	
197	
174	
189	
174	
196	
214	
149	
162	
169	
187	
182	
219	
177	
205	
173	
191	
163	
196	
181	
167	
175	
195	
188	
167	
184	
170	
181	
165	
186	
215	
166	
166	
209	
201	
180	
171	
182	
205	
196	
181	
177	
197	
195	
178	
181	
175	
184	
183	
181	
162	
180	
191	
184	
187	
171	
180	
196	
186	
182	
181	
175	
191	
173	
198	
173	
172	
195	
197	
167	
176	
189	
162	
196	
161	
206	
170	
180	
184	
190	
170	
200	
145	
182	
181	
169	
171	
158	
165	
172	
182	
181	
162	
175	
177	
163	
171	
187	
181	
192	
184	
180	
175	
190	
180	
196	
184	
176	
167	
176	
179	
188	
179	
164	
179	
171	
159	
168	
188	
166	
177	
181	
184	
166	
175	
173	
195	
170	
190	
164	
162	
148	
171	
183	
171	
180	
156	
190	
169	
193	
176	
168	
152	
178	
176	
196	
189	
172	
187	
199	
170	
167	
190	
162	
160	
180	
178	
176	
190	
164	
175	
209	
156	
161	
183	
180	
189	
169	
166	
184	
174	
190	
182	
155	
205	
165	
169	
168	
152	
184	
182	
167	
194	
163	
171	
164	
179	
190	
164	
175	
158	
183	
186	
158	
197	
163	
167	
141	
172	
176	
170	
177	
166	
153	
153	
178	
170	
176	
171	
153	
180	
182	
165	
180	
177	
174	
176	
188	
164	
175	
174	
168	
146	
151	
205	
167	
160	
169	
184	
164	
172	
171	
168	
163	
171	
176	
180	
178	
158	
153	
181	
151	
155	
172	
186	
187	
168	
164	
161	
172	
150	
175	
173	
147	
155	
161	
159	
173	
172	
162	
167	
182	
178	
147	
164	
165	
166	
153	
151	
171	
159	
175	
165	
179	
163	
140	
162	
179	
163	
155	
155	
158	
175	
162	
197	
166	
174	
171	
163	
162	
160	
170	
186	
163	
167	
161	
173	
178	
169	
198	
181	
172	
165	
156	
169	
201	
152	
162	
173	
156	
169	
194	
157	
170	
155	
166	
151	
159	
167	
155	
200	
144	
163	
167	
153	
166	
156	
157	
143	
177	
165	
163	
164	
160	
141	
193	
142	
161	
178	
147	
156	
179	
144	
182	
163	
185	
181	
175	
171	
150	
172	
149	
166	
156	
162	
176	
171	
173	
163	
169	
179	
158	
166	
170	
166	
151	
168	
152	
179	
146	
176	
191	
152	
184	
169	
140	
157	
137	
178	
149	
164	
174	
149	
177	
179	
146	
156	
151	
169	
148	
182	
158	
165	
150	
174	
143	
187	
176	
183	
160	
163	
183	
172	
183	
151	
131	
166	
155	
170	
153	
142	
147	
166	
191	
172	
152	
158	
173	
140	
145	
139	
171	
171	
135	
173	
151	
162	
154	
169	
161	
162	
168	
167	
131	
179	
164	
183	
143	
135	
165	
149	
170	
173	
198	
158	
191	
165	
180	
157	
178	
178	
166	
156	
166	
154	
139	
163	
164	
166	
170	
169	
161	
147	
165	
137	
164	
160	
148	
156	
154	
141	
167	
176	
138	
147	
147	
165	
137	
161	
171	
163	
168	
173	
181	
149	
198	
157	
165	
169	
147	
170	
146	
170	
166	
150	
181	
146	
165	
150	
162	
156	
167	
174	
143	
154	
156	
163	
147	
155	
149	
160	
160	
163	
124	
148	
170	
155	
141	
164	
157	
154	
167	
149	
181	
172	
155	
144	
162	
169	
160	
191	
166	
175	
153	
161	
136	
161	
170	
155	
184	
168	
154	
157	
176	
161	
161	
159	
143	
164	
154	
169	
174	
173	
152	
171	
170	
159	
169	
147	
163	
170	
174	
165	
137	
139	
150	
170	
141	
161	
172	
181	
147	
172	
165	
162	
153	
160	
159	
158	
164	
134	
170	
170	
168	
176	
143	
163	
161	
150	
185	
160	
151	
155	
170	
142	
152	
149	
141	
152	
148	
144	
164	
174	
168	
144	
153	
150	
173	
145	
155	
139	
149	
148	
146	
172	
150	
138	
157	
158	
175	
139	
148	
154	
163	
160	
157	
164	
162	
147	
153	
146	
145	
142	
165	
160	
142	
180	
156	
125	
161	
151	
178	
154	
147	
144	
172	
163	
161	
143	
177	
176	
159	
150	
165	
136	
149	
160	
165	
134	
152	
143	
151	
137	
160	
157	
185	
156	
148	
165	
152	
145	
139	
116	
147	
178	
153	
161	
139	
136	
139	
151	
151	
150	
153	
157	
159	
160	
159	
136	
155	
155	
129	
160	
146	
149	
142	
139	
156	
150	
152	
165	
167	
159	
127	
149	
145	
180	
159	
157	
156	
140	
151	
163	
150	
180	
156	
147	
161	
153	
137	
150	
142	
174	
158	
158	
138	
141	
151	
136	
178	
148	
164	
133	
163	
151	
159	
147	
163	
137	
156	
161	
151	
153	
152	
154	
158	
136	
165	
184	
137	
151	
151	
150	
144	
132	
171	
140	
129	
143	
145	
165	
148	
132	
145	
142	
155	
144	
139	
168	
133	
141	
127	
164	
152	
139	
135	
136	
156	
151	
135	
154	
135	
143	
140	
142	
145	
143	
145	
137	
139	
146	
147	
130	
154	
145	
138	
136	
166	
143	
162	
144	
169	
157	
156	
145	
153	
141	
122	
137	
150	
158	
161	
138	
161	
170	
136	
141	
124	
160	
156	
163	
143	
122	
164	
144	
134	
125	
158	
165	
162	
139	
155	
143	
129	
153	
154	
161	
144	
150	
154	
133	
141	
148	
185	
151	
154	
116	
143	
146	
151	
157	
150	
152	
153	
149	
169	
127	
147	
141	
155	
151	
152	
139	
159	
144	
127	
119	
146	
135	
146	
150	
122	
147	
148	
161	
154	
153	
124	
138	
163	
147	
145	
123	
146	
137	
136	
149	
142	
143	
168	
140	
138	
149	
158	
153	
145	
122	
156	
161	
154	
148	
135	
145	
149	
138	
141	
140	
144	
142	
161	
157	
154	
134	
136	
140	
180	
115	
135	
155	
132	
133	
163	
122	
126	
150	
136	
160	
149	
156	
150	
148	
121	
156	
143	
152	
136	
142	
128	
167	
153	
144	
152	
139	
155	
159	
140	
149	
137	
150	
145	
145	
134	
149	
152	
138	
146	
143	
153	
135	
151	
155	
144	
130	
144	
152	
158	
147	
137	
124	
138	
133	
118	
159	
143	
138	
163	
135	
156	
128	
130	
127	
141	
148	
134	
127	
165	
117	
153	
134	
138	
139	
149	
136	
161	
137	
125	
131	
137	
144	
130	
110	
129	
137	
158	
138	
135	
149	
135	
142	
122	
121	
148	
131	
129	
155	
163	
134	
143	
139	
123	
119	
130	
164	
144	
147	
161	
146	
129	
144	
148	
148	
126	
134	
159	
150	
128	
138	
127	
150	
128	
135	
146	
119	
126	
157	
118	
123	
125	
140	
143	
148	
148	
108	
111	
120	
142	
156	
135	
107	
147	
127	
142	
126	
156	
137	
136	
149	
136	
141	
143	
127	
142	
147	
135	
142	
131	
127	
144	
138	
158	
161	
172	
127	
137	
156	
121	
141	
122	
136	
132	
144	
132	
154	
137	
141	
121	
152	
125	
128	
133	
139	
118	
155	
130	
132	
141	
121	
152	
140	
129	
148	
119	
139	
147	
135	
119	
142	
138	
121	
171	
142	
135	
142	
146	
132	
137	
145	
131	
127	
134	
141	
137	
132	
144	
149	
140	
141	
145	
134	
150	
156	
118	
142	
127	
131	
118	
130	
134	
130	
132	
159	
126	
124	
116	
143	
136	
131	
125	
134	
127	
126	
127	
139	
127	
127	
133	
144	
138	
139	
140	
121	
127	
146	
113	
150	
139	
114	
140	
119	
143	
138	
124	
156	
121	
127	
147	
149	
125	
141	
147	
141	
123	
136	
126	
149	
135	
141	
121	
130	
116	
133	
129	
131	
110	
143	
129	
132	
132	
114	
139	
136	
130	
129	
152	
123	
145	
147	
145	
138	
151	
146	
128	
139	
151	
117	
121	
125	
118	
147	
129	
126	
123	
150	
143	
148	
143	
123	
143	
141	
137	
140	
138	
122	
158	
146	
143	
139	
131	
125	
112	
138	
122	
110	
116	
139	
156	
133	
135	
116	
151	
132	
127	
125	
129	
135	
108	
151	
115	
146	
115	
125	
135	
141	
147	
126	
138	
148	
165	
146	
155	
148	
131	
119	
150	
137	
153	
126	
136	
120	
126	
123	
142	
157	
123	
119	
129	
137	
127	
116	
148	
135	
128	
126	
115	
156	
116	
132	
128	
131	
130	
144	
134	
127	
127	
124	
160	
132	
143	
132	
137	
134	
121	
144	
132	
129	
129	
139	
117	
121	
139	
135	
151	
125	
134	
126	
115	
158	
137	
123	
143	
140	
149	
119	
130	
145	
140	
148	
133	
117	
137	
138	
134	
139	
129	
101	
120	
154	
132	
133	
135	
147	
130	
124	
132	
133	
123	
131	
118	
105	
142	
139	
138	
128	
141	
107	
127	
143	
126	
130	
133	
130	
109	
125	
143	
135	
126	
133	
129	
112	
124	
156	
138	
137	
128	
117	
147	
145	
115	
128	
128	
141	
130	
122	
142	
139	
130	
103	
121	
144	
133	
148	
145	
127	
110	
142	
148	
126	
134	
119	
128	
135	
120	
125	
143	
105	
109	
125	
128	
115	
124	
133	
125	
131	
127	
104	
123	
112	
128	
123	
151	
122	
118	
131	
135	
143	
131	
117	
130	
135	
122	
112	
136	
120	
124	
123	
128	
119	
136	
112	
119	
101	
113	
112	
128	
129	
128	
131	
147	
103	
129	
136	
124	
114	
103	
133	
123	
129	
131	
108	
126	
136	
122	
124	
138	
158	
133	
134	
137	
140	
124	
122	
119	
145	
108	
133	
117	
131	
144	
131	
134	
149	
140	
105	
114	
139	
125	
162	
108	
131	
122	
141	
124	
135	
149	
113	
121	
120	
132	
131	
140	
111	
123	
130	
135	
133	
133	
138	
118	
114	
128	
127	
131	
126	
132	
146	
141	
127	
130	
145	
130	
140	
138	
131	
117	
145	
147	
135	
117	
148	
131	
128	
132	
115	
116	
136	
120	
137	
141	
130	
136	
136	
132	
126	
119	
109	
118	
128	
128	
108	
134	
126	
125	
122	
132	
130	
142	
128	
130	
113	
121	
124	
133	
127	
100	
131	
135	
146	
117	
142	
122	
127	
102	
141	
140	
119	
111	
136	
131	
118	
137	
128	
99	
132	
127	
124	
114	
113	
140	
115	
112	
105	
136	
129	
145	
125	
129	
106	
144	
119	
125	
124	
108	
109	
109	
115	
141	
130	
100	
126	
127	
120	
122	
124	
116	
147	
127	
130	
130	
128	
119	
119	
112	
120	
125	
109	
135	
134	
110	
130	
145	
136	
96	
118	
122	
116	
121	
124	
107	
135	
112	
113	
111	
116	
104	
114	
113	
113	
126	
139	
123	
110	
131	
121	
126	
149	
130	
123	
137	
109	
132	
116	
121	
123	
121	
136	
122	
121	
130	
110	
145	
144	
117	
111	
126	
118	
115	
124	
157	
130	
120	
119	
119	
112	
131	
136	
121	
116	
122	
123	
128	
133	
125	
120	
105	
105	
116	
131	
132	
112	
103	
113	
114	
140	
113	
129	
130	
124	
108	
104	
133	
112	
111	
132	
138	
113	
111	
142	
118	
121	
141	
104	
121	
114	
114	
115	
97	
131	
104	
134	
134	
123	
105	
112	
125	
107	
122	
137	
113	
103	
122	
108	
126	
106	
137	
120	
125	
120	
125	
111	
101	
120	
131	
108	
117	
111	
109	
124	
111	
120	
105	
127	
127	
106	
109	
124	
126	
109	
114	
123	
126	
103	
136	
119	
138	
119	
135	
104	
106	
102	
130	
112	
131	
112	
103	
121	
111	
124	
111	
111	
125	
122	
111	
129	
116	
119	
121	
136	
125	
125	
113	
122	
126	
114	
124	
96	
124	
138	
129	
111	
124	
116	
115	
118	
128	
139	
113	
120	
135	
114	
134	
109	
115	
131	
105	
123	
105	
115	
119	
102	
115	
126	
118	
141	
113	
120	
126	
98	
114	
123	
127	
122	
110	
115	
127	
96	
121	
121	
108	
120	
131	
114	
125	
125	
127	
115	
120	
126	
111	
119	
107	
115	
122	
104	
123	
128	
113	
134	
105	
112	
140	
110	
126	
133	
109	
111	
134	
115	
107	
140	
120	
115	
111	
122	
118	
138	
123	
116	
111	
98	
108	
119	
105	
122	
101	
115	
117	
109	
96	
132	
107	
106	
124	
96	
109	
97	
122	
114	
121	
118	
136	
124	
145	
115	
124	
102	
118	
113	
115	
143	
114	
102	
106	
120	
125	
107	
129	
109	
112	
89	
124	
116	
137	
95	
112	
96	
119	
108	
113	
122	
119	
107	
132	
112	
143	
114	
128	
120	
108	
133	
110	
143	
91	
90	
124	
120	
117	
112	
120	
120	
113	
119	
103	
117	
109	
114	
131	
121	
113	
123	
105	
127	
122	
122	
116	
115	
120	
121	
107	
135	
117	
107	
110	
122	
105	
108	
122	
126	
122	
120	
108	
128	
95	
108	
116	
124	
126	
113	
111	
127	
118	
109	
129	
107	
126	
106	
110	
110	
117	
129	
126	
126	
111	
105	
104	
113	
120	
111	
116	
138	
93	
113	
116	
133	
124	
118	
112	
100	
107	
105	
117	
124	
100	
105	
137	
131	
116	
89	
127	
122	
106	
122	
112	
117	
108	
116	
133	
106	
106	
100	
141	
104	
89	
108	
127	
108	
114	
107	
120	
112	
114	
112	
111	
109	
113	
112	
117	
115	
102	
107	
114	
118	
116	
123	
106	
117	
111	
121	
95	
111	
122	
112	
116	
97	
114	
102	
100	
120	
131	
104	
114	
101	
126	
115	
113	
122	
102	
122	
106	
97	
102	
118	
102	
116	
136	
113	
104	
121	
101	
123	
103	
98	
118	
113	
103	
108	
123	
109	
113	
105	
125	
97	
112	
121	
99	
99	
111	
122	
113	
112	
111	
112	
118	
103	
98	
113	
115	
119	
116	
116	
99	
104	
119	
82	
116	
120	
122	
103	
94	
101	
106	
131	
98	
93	
101	
112	
106	
93	
127	
120	
118	
109	
113	
133	
113	
131	
111	
114	
128	
104	
104	
130	
109	
93	
116	
83	
98	
105	
102	
117	
86	
89	
100	
126	
117	
109	
111	
104	
109	
110	
110	
109	
125	
131	
118	
116	
114	
136	
118	
125	
104	
109	
94	
117	
127	
98	
106	
87	
126	
105	
111	
108	
103	
134	
96	
100	
100	
105	
123	
103	
114	
102	
99	
125	
113	
103	
110	
115	
101	
118	
103	
107	
106	
112	
106	
100	
103	
101	
108	
100	
108	
85	
107	
104	
104	
97	
110	
110	
106	
97	
128	
120	
111	
97	
101	
111	
105	
96	
108	
108	
103	
98	
104	
94	
103	
95	
99	
109	
97	
111	
97	
111	
98	
106	
95	
96	
116	
107	
114	
108	
99	
106	
98	
107	
117	
101	
109	
101	
111	
101	
115	
112	
102	
100	
112	
109	
108	
108	
125	
111	
90	
113	
115	
113	
123	
113	
107	
109	
96	
138	
113	
108	
118	
92	
94	
117	
110	
122	
107	
92	
105	
110	
116	
110	
137	
128	
107	
120	
104	
98	
101	
101	
112	
111	
118	
97	
102	
107	
96	
97	
118	
103	
93	
110	
106	
90	
110	
106	
94	
100	
95	
99	
110	
99	
101	
108	
102	
113	
101	
105	
123	
110	
99	
120	
112	
117	
103	
109	
115	
107	
100	
94	
113	
115	
106	
111	
109	
105	
117	
118	
117	
122	
99	
114	
105	
111	
116	
105	
86	
117	
110	
100	
111	
89	
98	
98	
93	
92	
112	
100	
108	
120	
107	
112	
98	
105	
97	
123	
105	
105	
109	
112	
94	
106	
126	
90	
123	
99	
107	
114	
97	
114	
103	
109	
101	
90	
104	
99	
112	
88	
125	
91	
122	
104	
109	
100	
129	
84	
106	
106	
100	
120	
92	
111	
107	
90	
78	
105	
84	
97	
104	
107	
100	
104	
92	
115	
112	
101	
101	
120	
125	
95	
103	
89	
114	
93	
90	
89	
91	
94	
112	
99	
98	
109	
106	
104	
111	
100	
92	
104	
94	
110	
111	
110	
104	
90	
96	
105	
129	
107	
94	
95	
100	
91	
97	
113	
93	
107	
91	
106	
108	
95	
101	
110	
99	
90	
96	
94	
92	
119	
108	
97	
97	
102	
95	
107	
98	
111	
109	
106	
114	
124	
98	
98	
101	
86	
118	
101	
107	
104	
102	
104	
88	
97	
111	
110	
116	
89	
108	
98	
111	
108	
98	
107	
118	
114	
103	
104	
103	
98	
109	
109	
92	
95	
92	
92	
119	
105	
103	
90	
103	
106	
95	
117	
120	
114	
102	
87	
118	
100	
98	
103	
127	
98	
104	
105	
106	
99	
113	
83	
100	
109	
96	
80	
85	
121	
105	
99	
94	
95	
93	
88	
106	
93	
94	
104	
102	
101	
100	
104	
101	
87	
107	
113	
89	
89	
91	
93	
100	
83	
104	
85	
109	
99	
101	
87	
108	
97	
90	
100	
114	
113	
87	
93	
87	
104	
110	
103	
102	
95	
100	
110	
102	
97	
92	
89	
97	
96	
84	
106	
101	
90	
88	
105	
103	
122	
94	
111	
96	
75	
108	
75	
119	
92	
78	
119	
71	
103	
98	
98	
110	
98	
87	
100	
90	
107	
107	
92	
94	
88	
99	
102	
98	
86	
102	
97	
101	
99	
78	
100	
79	
96	
79	
88	
111	
102	
94	
93	
109	
108	
111	
82	
88	
94	
91	
118	
83	
85	
117	
85	
109	
101	
113	
98	
85	
89	
94	
116	
103	
82	
96	
104	
112	
109	
104	
109	
98	
86	
112	
86	
103	
101	
91	
87	
103	
121	
99	
111	
96	
100	
97	
106	
89	
97	
109	
101	
103	
113	
98	
112	
108	
83	
87	
104	
95	
94	
95	
96	
73	
100	
89	
109	
107	
91	
107	
110	
102	
97	
90	
110	
109	
95	
106	
88	
101	
93	
90	
104	
81	
101	
99	
87	
112	
119	
95	
92	
99	
90	
76	
112	
81	
99	
95	
81	
103	
100	
105	
111	
103	
85	
97	
105	
96	
99	
87	
83	
98	
107	
83	
108	
126	
95	
110	
108	
81	
84	
89	
96	
92	
103	
101	
94	
95	
101	
85	
85	
96	
97	
103	
102	
88	
96	
92	
96	
96	
105	
119	
90	
93	
98	
86	
92	
76	
87	
97	
102	
95	
87	
103	
113	
106	
90	
91	
108	
112	
83	
99	
99	
102	
100	
97	
87	
84	
109	
80	
82	
105	
106	
121	
80	
92	
104	
108	
92	
110	
89	
104	
113	
86	
94	
94	
103	
92	
100	
104	
90	
99	
96	
107	
99	
108	
102	
86	
96	
91	
90	
100	
107	
91	
104	
91	
82	
102	
85	
107	
102	
97	
97	
98	
94	
98	
86	
87	
106	
110	
103	
86	
98	
86	
94	
100	
109	
81	
135	
98	
95	
97	
101	
118	
102	
81	
97	
84	
92	
98	
109	
87	
105	
90	
104	
90	
110	
89	
91	
91	
96	
100	
95	
96	
92	
97	
86	
105	
80	
91	
71	
107	
86	
114	
96	
93	
92	
97	
96	
98	
113	
95	
76	
92	
99	
106	
88	
87	
80	
91	
93	
99	
104	
98	
88	
96	
115	
112	
103	
97	
96	
102	
79	
117	
103	
94	
83	
91	
94	
110	
84	
90	
91	
82	
106	
109	
103	
90	
80	
97	
111	
81	
104	
101	
94	
101	
85	
82	
86	
77	
96	
100	
65	
87	
100	
115	
102	
117	
89	
79	
102	
102	
88	
78	
85	
83	
94	
102	
89	
85	
95	
92	
89	
95	
96	
86	
87	
99	
105	
95	
91	
114	
92	
98	
98	
105	
91	
100	
73	
108	
85	
78	
106	
107	
85	
93	
81	
113	
112	
110	
84	
101	
86	
89	
84	
98	
98	
104	
85	
105	
99	
75	
90	
98	
92	
93	
91	
77	
88	
97	
95	
87	
96	
92	
90	
104	
85	
81	
79	
86	
80	
81	
115	
95	
76	
78	
95	
109	
94	
69	
104	
92	
96	
97	
94	
85	
83	
114	
93	
94	
92	
80	
93	
72	
101	
98	
91	
88	
88	
86	
98	
89	
90	
79	
103	
103	
81	
99	
91	
96	
98	
110	
92	
100	
70	
84	
78	
99	
92	
91	
108	
106	
98	
92	
100	
83	
82	
92	
85	
90	
93	
80	
94	
95	
87	
86	
101	
96	
100	
76	
80	
95	
84	
92	
96	
85	
124	
104	
89	
87	
112	
97	
92	
97	
81	
75	
91	
52	
102	
85	
84	
104	
87	
80	
72	
97	
77	
85	
98	
84	
84	
92	
85	
69	
84	
88	
76	
94	
99	
102	
110	
75	
69	
78	
84	
87	
89	
97	
101	
100	
94	
94	
86	
87	
90	
97	
93	
90	
83	
90	
91	
92	
103	
86	
93	
103	
87	
101	
76	
95	
89	
87	
76	
73	
89	
103	
83	
93	
91	
90	
90	
90	
102	
107	
92	
88	
90	
91	
97	
94	
91	
100	
89	
79	
92	
96	
87	
96	
95	
97	
87	
96	
77	
94	
87	
80	
100	
101	
85	
81	
81	
77	
97	
105	
93	
80	
90	
84	
87	
80	
96	
82	
96	
87	
80	
86	
82	
92	
94	
81	
85	
99	
101	
84	
76	
85	
84	
101	
97	
96	
97	
98	
98	
107	
82	
89	
87	
67	
103	
84	
87	
103	
82	
72	
94	
89	
85	
93	
83	
84	
80	
76	
80	
85	
85	
83	
86	
97	
84	
87	
94	
85	
76	
90	
97	
86	
101	
101	
82	
96	
84	
102	
76	
78	
95	
70	
102	
102	
93	
91	
85	
85	
86	
78	
105	
87	
88	
91	
92	
81	
81	
100	
76	
90	
102	
100	
98	
75	
74	
92	
97	
97	
90	
79	
105	
95	
82	
65	
83	
70	
89	
83	
91	
87	
73	
62	
93	
86	
89	
95	
95	
77	
84	
99	
87	
85	
79	
83	
90	
96	
81	
83	
79	
87	
97	
73	
90	
86	
87	
92	
95	
89	
91	
77	
92	
107	
87	
88	
84	
101	
76	
101	
65	
83	
96	
76	
101	
81	
95	
84	
91	
101	
88	
105	
75	
82	
79	
83	
86	
73	
80	
96	
70	
92	
75	
70	
79	
75	
81	
97	
81	
70	
84	
93	
108	
88	
85	
76	
82	
80	
80	
102	
70	
92	
93	
80	
79	
104	
87	
81	
103	
98	
100	
75	
95	
83	
94	
68	
90	
96	
81	
64	
89	
96	
103	
96	
76	
90	
83	
107	
67	
86	
105	
103	
89	
84	
70	
73	
83	
90	
94	
86	
76	
87	
84	
102	
72	
69	
85	
66	
76	
100	
77	
83	
78	
80	
83	
92	
85	
98	
100	
104	
66	
84	
81	
88	
104	
102	
73	
75	
92	
73	
85	
90	
82	
78	
83	
83	
93	
65	
92	
88	
81	
81	
91	
77	
83	
74	
90	
91	
72	
90	
88	
87	
94	
89	
83	
108	
78	
71	
86	
90	
69	
94	
66	
99	
60	
75	
91	
85	
84	
68	
95	
87	
77	
121	
81	
93	
72	
97	
94	
81	
83	
81	
104	
93	
73	
99	
76	
83	
94	
88	
72	
88	
82	
83	
71	
79	
68	
85	
90	
91	
72	
77	
86	
97	
88	
82	
93	
75	
93	
79	
93	
55	
87	
73	
84	
70	
88	
70	
91	
74	
90	
76	
83	
87	
90	
82	
83	
84	
106	
75	
84	
92	
83	
96	
78	
74	
77	
92	
87	
72	
80	
71	
93	
89	
85	
79	
94	
78	
93	
103	
73	
67	
69	
85	
92	
84	
79	
89	
87	
71	
82	
78	
73	
74	
82	
90	
90	
85	
70	
76	
88	
86	
100	
57	
78	
91	
99	
73	
92	
73	
101	
97	
79	
90	
89	
88	
75	
85	
77	
71	
88	
73	
80	
85	
94	
88	
87	
94	
78	
65	
75	
89	
90	
81	
89	
73	
78	
69	
88	
94	
74	
75	
105	
90	
79	
100	
76	
73	
81	
72	
77	
83	
92	
84	
72	
74	
99	
87	
78	
105	
89	
80	
79	
82	
75	
85	
91	
68	
73	
67	
75	
96	
87	
88	
85	
69	
93	
69	
89	
86	
98	
78	
82	
95	
79	
84	
72	
89	
80	
87	
76	
76	
80	
79	
88	
75	
92	
89	
89	
83	
85	
86	
89	
65	
88	
85	
84	
84	
75	
86	
84	
85	
81	
77	
89	
89	
80	
76	
86	
79	
73	
78	
83	
74	
90	
86	
85	
108	
95	
68	
92	
57	
77	
75	
94	
85	
83	
90	
94	
93	
101	
76	
81	
75	
99	
73	
88	
84	
86	
75	
74	
84	
65	
67	
82	
81	
73	
93	
84	
82	
92	
87	
73	
90	
75	
80	
72	
84	
93	
69	
69	
71	
87	
72	
85	
74	
83	
75	
87	
87	
94	
88	
67	
77	
93	
71	
70	
82	
94	
64	
81	
71	
77	
63	
85	
87	
73	
84	
96	
77	
93	
79	
89	
82	
87	
88	
87	
70	
81	
93	
81	
90	
80	
83	
64	
71	
69	
86	
83	
90	
75	
63	
82	
82	
92	
85	
81	
90	
80	
90	
101	
78	
87	
84	
71	
87	
74	
79	
89	
94	
83	
86	
79	
78	
81	
75	
80	
86	
98	
70	
67	
82	
65	
76	
82	
75	
69	
65	
68	
81	
78	
87	
84	
68	
79	
70	
61	
75	
80	
76	
66	
80	
86	
93	
73	
76	
77	
82	
89	
77	
90	
78	
73	
87	
85	
74	
77	
90	
67	
84	
98	
75	
77	
73	
88	
71	
76	
96	
93	
80	
77	
77	
73	
85	
84	
76	
92	
81	
67	
96	
79	
80	
84	
88	
90	
67	
82	
86	
76	
75	
71	
80	
95	
79	
68	
78	
68	
88	
90	
68	
99	
65	
82	
69	
77	
89	
87	
75	
85	
78	
79	
66	
88	
82	
82	
76	
88	
79	
71	
81	
90	
84	
67	
82	
78	
74	
62	
74	
72	
68	
59	
72	
78	
70	
76	
71	
73	
90	
84	
83	
64	
66	
81	
71	
73	
76	
83	
76	
70	
64	
81	
82	
66	
71	
82	
73	
68	
75	
78	
80	
80	
76	
76	
84	
76	
84	
74	
80	
82	
73	
75	
69	
82	
80	
90	
70	
82	
72	
71	
65	
93	
83	
73	
75	
71	
87	
66	
71	
84	
83	
86	
81	
83	
74	
75	
94	
66	
69	
79	
72	
82	
82	
71	
91	
63	
67	
82	
64	
78	
73	
82	
84	
72	
71	
96	
80	
67	
67	
65	
87	
97	
74	
87	
77	
88	
78	
73	
76	
64	
81	
80	
77	
86	
77	
69	
78	
85	
78	
76	
77	
89	
83	
76	
66	
83	
77	
90	
80	
75	
73	
91	
77	
79	
85	
76	
73	
76	
98	
97	
77	
78	
74	
87	
78	
104	
81	
80	
73	
83	
82	
66	
83	
76	
77	
69	
70	
76	
66	
72	
86	
96	
73	
64	
74	
73	
70	
74	
88	
73	
77	
72	
90	
88	
84	
74	
74	
81	
73	
91	
65	
81	
86	
73	
76	
77	
88	
85	
76	
78	
88	
83	
79	
73	
65	
73	
71	
67	
65	
76	
87	
73	
91	
76	
81	
79	
69	
84	
105	
73	
58	
61	
73	
68	
70	
77	
76	
76	
79	
51	
69	
70	
84	
74	
76	
74	
83	
77	
73	
55	
71	
71	
69	
76	
92	
72	
79	
74	
75	
68	
68	
81	
82	
81	
77	
85	
62	
72	
72	
76	
72	
90	
79	
86	
68	
94	
78	
69	
80	
77	
83	
80	
91	
63	
83	
75	
76	
64	
72	
78	
70	
75	
81	
72	
71	
70	
66	
79	
80	
65	
81	
61	
69	
67	
85	
78	
71	
89	
79	
64	
74	
81	
83	
81	
79	
79	
75	
86	
63	
76	
65	
66	
74	
82	
82	
72	
67	
75	
86	
66	
82	
76	
75	
82	
77	
76	
74	
68	
77	
68	
74	
68	
63	
69	
70	
71	
92	
82	
77	
79	
79	
64	
56	
65	
70	
75	
90	
89	
85	
87	
74	
66	
81	
68	
79	
70	
77	
78	
72	
73	
66	
79	
75	
79	
60	
69	
72	
66	
62	
68	
79	
80	
72	
56	
65	
65	
65	
78	
68	
90	
78	
89	
67	
95	
70	
83	
74	
76	
80	
67	
81	
73	
60	
83	
62	
65	
71	
85	
79	
78	
85	
76	
78	
70	
67	
77	
75	
71	
83	
73	
63	
79	
69	
70	
73	
62	
65	
79	
65	
69	
62	
63	
61	
73	
79	
84	
74	
76	
64	
70	
79	
76	
74	
76	
67	
72	
64	
67	
70	
67	
76	
59	
67	
56	
81	
81	
64	
70	
96	
73	
56	
76	
66	
67	
71	
84	
73	
69	
86	
65	
80	
75	
74	
69	
72	
76	
67	
71	
73	
95	
69	
68	
72	
79	
69	
58	
75	
70	
81	
60	
70	
60	
69	
76	
81	
81	
58	
78	
85	
85	
82	
68	
65	
66	
54	
71	
61	
62	
72	
81	
70	
79	
60	
64	
64	
64	
65	
63	
68	
62	
71	
90	
64	
73	
81	
55	
57	
84	
79	
84	
69	
73	
74	
78	
86	
73	
70	
67	
72	
75	
76	
83	
70	
66	
70	
77	
66	
70	
69	
66	
59	
61	
58	
78	
78	
77	
54	
85	
63	
78	
65	
75	
75	
64	
74	
80	
70	
71	
81	
75	
67	
83	
86	
77	
75	
72	
75	
71	
50	
71	
56	
82	
67	
73	
68	
78	
61	
73	
66	
69	
55	
66	
67	
67	
77	
61	
85	
75	
70	
83	
84	
76	
64	
68	
66	
56	
63	
65	
87	
88	
66	
67	
65	
73	
62	
81	
58	
60	
66	
67	
61	
82	
67	
73	
62	
81	
90	
84	
72	
83	
69	
78	
66	
63	
69	
70	
69	
59	
74	
73	
78	
66	
62	
67	
57	
84	
74	
83	
70	
64	
71	
73	
76	
85	
78	
63	
68	
66	
59	
68	
55	
76	
83	
63	
75	
68	
71	
75	
54	
83	
56	
68	
78	
81	
55	
57	
85	
66	
64	
83	
68	
86	
73	
68	
78	
74	
57	
59	
65	
57	
76	
80	
48	
87	
82	
78	
62	
64	
64	
62	
73	
68	
82	
60	
66	
76	
87	
54	
76	
75	
88	
60	
66	
49	
67	
75	
91	
72	
72	
61	
59	
69	
70	
61	
67	
76	
65	
64	
70	
63	
63	
59	
73	
79	
78	
73	
77	
65	
76	
70	
79	
80	
86	
63	
77	
67	
73	
74	
60	
50	
50	
85	
70	
63	
67	
57	
61	
62	
79	
72	
62	
78	
65	
76	
62	
61	
63	
74	
80	
68	
64	
63	
88	
57	
81	
63	
62	
71	
69	
65	
77	
74	
59	
62	
79	
80	
75	
70	
76	
82	
70	
76	
67	
55	
69	
73	
64	
82	
71	
72	
68	
73	
79	
52	
75	
74	
74	
73	
77	
83	
71	
74	
77	
71	
59	
59	
61	
77	
90	
71	
56	
66	
70	
85	
58	
66	
81	
73	
76	
84	
70	
64	
68	
81	
64	
58	
80	
72	
86	
59	
68	
56	
70	
73	
71	
76	
62	
60	
51	
71	
75	
59	
63	
66	
64	
73	
63	
71	
75	
60	
70	
68	
75	
56	
66	
68	
68	
62	
64	
71	
79	
80	
65	
79	
73	
55	
72	
68	
72	
65	
60	
51	
61	
70	
54	
56	
71	
73	
59	
63	
66	
67	
81	
79	
75	
60	
75	
60	
56	
64	
69	
64	
61	
79	
68	
54	
65	
63	
68	
71	
66	
62	
83	
68	
61	
62	
73	
52	
60	
77	
79	
68	
50	
86	
75	
65	
63	
57	
57	
74	
61	
74	
68	
54	
67	
59	
70	
75	
66	
81	
79	
75	
59	
55	
55	
70	
56	
76	
74	
55	
67	
59	
92	
70	
77	
64	
64	
66	
82	
68	
67	
73	
60	
70	
64	
65	
58	
71	
62	
69	
64	
59	
92	
71	
68	
62	
74	
71	
68	
63	
54	
61	
50	
54	
75	
81	
59	
70	
43	
82	
56	
66	
70	
61	
61	
69	
72	
68	
75	
58	
65	
79	
58	
67	
58	
76	
71	
79	
54	
73	
73	
58	
62	
68	
61	
69	
66	
60	
69	
65	
56	
61	
60	
60	
73	
62	
71	
72	
74	
55	
73	
58	
62	
76	
64	
68	
80	
63	
67	
60	
75	
83	
72	
66	
56	
75	
73	
62	
65	
72	
68	
65	
76	
60	
67	
53	
79	
79	
60	
56	
57	
86	
69	
76	
69	
67	
64	
64	
76	
78	
72	
66	
59	
84	
53	
82	
61	
81	
65	
61	
73	
63	
58	
66	
54	
57	
68	
58	
83	
66	
50	
79	
61	
55	
