#PicoHarp 300  Histogram Data			06/01/2022 03:57:45 PM
#channels per curve
62500
#display curve no.
0	
#memory block no.
0	
#ns/channel
0.0320	
#counts
1	
2	
1	
0	
3	
0	
0	
1	
0	
3	
1	
1	
1	
3	
1	
1	
1	
1	
1	
1	
0	
0	
1	
0	
0	
3	
1	
2	
1	
0	
2	
0	
1	
2	
0	
1	
2	
0	
0	
0	
3	
1	
0	
2	
1	
1	
1	
2	
0	
2	
0	
0	
0	
1	
0	
0	
0	
1	
1	
1	
2	
0	
0	
0	
0	
1	
1	
1	
1	
2	
1	
1	
0	
1	
0	
0	
1	
0	
2	
0	
0	
3	
2	
0	
0	
1	
1	
1	
0	
0	
0	
2	
1	
0	
4	
1	
0	
1	
1	
0	
1	
0	
1	
1	
2	
0	
0	
2	
0	
1	
0	
1	
3	
0	
1	
0	
1	
0	
0	
0	
1	
3	
2	
2	
1	
0	
2	
0	
0	
0	
1	
1	
1	
5	
0	
1	
2	
0	
0	
0	
2	
0	
1	
0	
0	
0	
1	
0	
2	
0	
1	
0	
0	
3	
0	
0	
0	
0	
1	
0	
0	
0	
0	
3	
1	
1	
1	
0	
1	
2	
1	
1	
0	
0	
1	
1	
0	
0	
0	
0	
1	
0	
2	
0	
0	
1	
0	
1	
0	
1	
1	
1	
1	
1	
0	
0	
3	
1	
0	
4	
1	
0	
1	
2	
1	
1	
1	
0	
0	
2	
0	
3	
0	
3	
0	
2	
0	
0	
2	
1	
0	
0	
0	
0	
1	
0	
0	
0	
2	
0	
0	
1	
1	
0	
1	
2	
0	
0	
0	
0	
0	
1	
0	
3	
0	
3	
1	
1	
2	
1	
1	
2	
1	
1	
2	
2	
0	
1	
2	
1	
1	
2	
0	
0	
1	
0	
1	
0	
1	
0	
0	
0	
1	
0	
2	
3	
1	
0	
0	
0	
1	
1	
0	
1	
3	
1	
1	
1	
0	
0	
0	
0	
0	
2	
1	
1	
3	
1	
1	
0	
2	
0	
1	
2	
0	
1	
0	
1	
0	
0	
0	
2	
3	
1	
0	
0	
1	
2	
0	
0	
0	
0	
0	
0	
1	
3	
0	
1	
0	
0	
1	
3	
2	
1	
0	
1	
1	
2	
2	
3	
1	
2	
0	
1	
1	
2	
1	
0	
0	
2	
2	
1	
0	
0	
1	
0	
0	
1	
0	
1	
2	
1	
0	
0	
0	
0	
3	
1	
0	
1	
0	
0	
1	
1	
3	
1	
2	
0	
1	
0	
0	
0	
2	
0	
1	
1	
1	
0	
0	
0	
0	
1	
1	
1	
1	
1	
0	
1	
0	
0	
0	
1	
1	
0	
0	
1	
0	
1	
2	
0	
1	
0	
0	
1	
1	
1	
1	
1	
1	
0	
0	
1	
0	
0	
0	
2	
2	
0	
0	
1	
1	
1	
0	
1	
0	
2	
1	
1	
0	
3	
2	
0	
2	
2	
1	
0	
0	
1	
0	
3	
2	
1	
0	
0	
0	
1	
1	
0	
2	
0	
1	
0	
0	
2	
0	
0	
2	
0	
1	
2	
2	
2	
1	
3	
1	
1	
0	
1	
1	
0	
1	
0	
0	
0	
3	
2	
0	
3	
1	
0	
1	
1	
0	
1	
0	
0	
0	
1	
0	
2	
0	
0	
0	
1	
0	
1	
1	
0	
0	
0	
0	
1	
0	
1	
1	
3	
0	
0	
2	
1	
0	
2	
1	
0	
0	
0	
1	
1	
0	
0	
0	
1	
1	
0	
2	
0	
1	
1	
1	
2	
2	
3	
2	
2	
0	
1	
2	
1	
2	
2	
2	
0	
0	
2	
2	
2	
1	
3	
0	
0	
0	
1	
2	
2	
2	
1	
1	
0	
0	
1	
1	
0	
0	
0	
1	
0	
0	
2	
1	
2	
1	
1	
1	
1	
1	
0	
0	
0	
0	
2	
1	
2	
0	
2	
1	
0	
0	
0	
0	
0	
1	
2	
0	
1	
3	
0	
1	
4	
2	
1	
0	
1	
2	
1	
0	
1	
0	
1	
1	
1	
1	
0	
0	
2	
0	
1	
0	
1	
2	
1	
0	
1	
1	
1	
1	
0	
2	
0	
1	
1	
1	
1	
2	
0	
2	
1	
0	
0	
0	
0	
0	
3	
1	
1	
1	
3	
0	
0	
1	
0	
0	
0	
0	
2	
0	
1	
1	
1	
0	
0	
0	
1	
1	
0	
0	
0	
0	
1	
0	
1	
0	
0	
1	
0	
0	
0	
3	
1	
1	
1	
0	
1	
1	
0	
0	
2	
1	
1	
5	
0	
1	
0	
0	
0	
3	
2	
0	
1	
0	
0	
0	
1	
0	
0	
2	
2	
0	
1	
0	
0	
0	
0	
0	
1	
0	
0	
0	
0	
0	
1	
0	
1	
0	
0	
0	
0	
2	
2	
0	
1	
0	
1	
1	
2	
1	
0	
0	
2	
0	
0	
2	
1	
2	
0	
0	
3	
2	
0	
0	
0	
2	
0	
1	
1	
0	
0	
1	
0	
0	
1	
3	
2	
0	
1	
1	
1	
0	
1	
0	
1	
1	
1	
2	
0	
1	
1	
1	
2	
2	
0	
0	
0	
0	
1	
0	
1	
2	
0	
3	
1	
0	
0	
2	
2	
0	
0	
0	
1	
0	
1	
0	
1	
3	
0	
0	
1	
2	
0	
0	
1	
0	
1	
0	
0	
2	
0	
0	
0	
1	
2	
2	
3	
2	
0	
0	
1	
3	
1	
2	
0	
0	
0	
0	
0	
0	
0	
0	
0	
1	
0	
1	
2	
1	
1	
0	
0	
2	
0	
2	
1	
0	
0	
1	
1	
1	
1	
1	
0	
1	
2	
2	
1	
0	
1	
1	
1	
0	
1	
1	
0	
0	
0	
0	
2	
0	
0	
2	
0	
0	
1	
2	
2	
1	
2	
0	
0	
0	
0	
0	
0	
0	
1	
2	
1	
1	
0	
1	
2	
0	
1	
0	
1	
0	
1	
2	
2	
0	
1	
1	
0	
0	
0	
0	
0	
0	
0	
1	
0	
0	
1	
0	
1	
1	
0	
0	
2	
1	
1	
1	
1	
0	
1	
1	
0	
2	
2	
1	
1	
0	
1	
0	
1	
0	
0	
1	
1	
1	
0	
0	
1	
1	
1	
0	
0	
1	
0	
0	
0	
2	
1	
1	
3	
0	
0	
1	
2	
2	
4	
4	
2	
4	
6	
7	
5	
11	
8	
15	
14	
12	
18	
24	
28	
29	
45	
46	
44	
68	
55	
52	
77	
83	
68	
67	
96	
96	
115	
107	
129	
111	
100	
128	
134	
132	
129	
155	
128	
141	
128	
141	
144	
113	
135	
148	
149	
156	
129	
144	
163	
127	
154	
129	
127	
146	
143	
149	
127	
164	
135	
140	
145	
152	
136	
101	
138	
144	
125	
129	
144	
138	
148	
130	
151	
132	
129	
134	
135	
153	
120	
124	
141	
129	
138	
146	
131	
147	
140	
131	
125	
155	
139	
123	
133	
133	
137	
146	
145	
125	
115	
131	
122	
143	
141	
129	
146	
131	
134	
141	
119	
128	
144	
124	
126	
148	
127	
144	
132	
136	
137	
121	
128	
137	
135	
128	
134	
146	
142	
136	
125	
144	
135	
126	
130	
144	
148	
128	
146	
121	
130	
139	
125	
142	
125	
121	
144	
129	
124	
113	
130	
109	
129	
114	
128	
129	
129	
145	
113	
117	
129	
134	
107	
124	
137	
135	
133	
115	
124	
137	
109	
117	
138	
128	
118	
123	
131	
118	
138	
138	
126	
119	
118	
124	
139	
145	
118	
122	
115	
142	
112	
125	
146	
127	
140	
119	
123	
128	
119	
130	
136	
129	
132	
133	
113	
131	
129	
126	
128	
117	
111	
109	
115	
123	
109	
118	
87	
136	
121	
129	
117	
136	
109	
120	
124	
140	
130	
136	
124	
103	
121	
111	
135	
120	
121	
117	
118	
125	
128	
148	
131	
122	
122	
128	
124	
123	
128	
130	
113	
133	
143	
127	
116	
138	
128	
124	
122	
118	
134	
120	
125	
107	
127	
129	
112	
110	
113	
101	
118	
118	
116	
115	
115	
118	
116	
133	
143	
110	
109	
124	
114	
113	
117	
127	
108	
127	
118	
134	
122	
108	
141	
104	
131	
103	
112	
128	
126	
115	
136	
111	
119	
120	
125	
123	
126	
120	
134	
126	
127	
120	
126	
119	
112	
120	
143	
115	
120	
114	
115	
127	
114	
100	
119	
120	
124	
129	
118	
134	
134	
130	
116	
149	
116	
110	
117	
113	
121	
112	
116	
121	
118	
119	
112	
114	
115	
117	
124	
112	
121	
110	
114	
114	
111	
108	
122	
119	
114	
107	
144	
108	
118	
103	
126	
97	
110	
131	
120	
116	
107	
130	
110	
106	
107	
95	
103	
105	
104	
92	
108	
133	
128	
115	
109	
101	
102	
131	
101	
117	
98	
107	
117	
132	
99	
120	
114	
119	
112	
92	
124	
115	
120	
111	
115	
109	
105	
93	
118	
142	
94	
116	
103	
89	
115	
116	
105	
128	
121	
113	
106	
107	
112	
96	
113	
119	
113	
118	
121	
125	
109	
115	
124	
106	
105	
106	
115	
122	
110	
104	
94	
119	
122	
98	
101	
111	
112	
106	
113	
123	
132	
124	
117	
101	
128	
109	
92	
114	
111	
104	
115	
110	
117	
100	
105	
117	
104	
104	
101	
98	
118	
108	
111	
110	
121	
106	
116	
111	
95	
104	
99	
119	
109	
119	
100	
117	
111	
128	
101	
101	
99	
109	
106	
105	
103	
124	
90	
112	
109	
130	
110	
124	
106	
98	
111	
135	
110	
115	
93	
102	
104	
105	
106	
103	
125	
125	
98	
118	
86	
108	
102	
130	
104	
122	
131	
106	
92	
124	
115	
101	
110	
96	
98	
99	
106	
109	
114	
108	
109	
106	
131	
108	
117	
113	
104	
104	
113	
110	
101	
97	
98	
102	
100	
96	
90	
116	
102	
105	
102	
116	
100	
117	
100	
90	
92	
94	
96	
115	
133	
119	
105	
94	
90	
112	
109	
116	
110	
115	
98	
96	
104	
94	
105	
100	
102	
95	
99	
142	
110	
107	
95	
115	
89	
79	
117	
82	
88	
126	
109	
87	
86	
110	
91	
90	
121	
90	
120	
101	
113	
106	
102	
101	
97	
118	
101	
98	
119	
97	
102	
108	
95	
104	
94	
116	
109	
105	
107	
104	
79	
98	
86	
102	
99	
90	
118	
100	
101	
103	
111	
109	
131	
124	
95	
94	
107	
112	
107	
97	
121	
104	
123	
106	
107	
115	
116	
95	
102	
102	
92	
98	
105	
105	
107	
104	
100	
119	
98	
109	
96	
122	
126	
103	
105	
118	
107	
91	
102	
92	
97	
98	
98	
111	
101	
108	
75	
112	
90	
118	
103	
90	
116	
85	
104	
104	
92	
85	
90	
104	
103	
94	
83	
99	
101	
101	
115	
112	
114	
85	
98	
105	
106	
97	
107	
99	
115	
126	
118	
102	
105	
100	
84	
111	
97	
105	
101	
104	
113	
112	
80	
93	
90	
97	
106	
99	
78	
110	
116	
96	
95	
92	
99	
104	
106	
97	
97	
86	
110	
90	
88	
119	
115	
104	
88	
120	
103	
106	
105	
94	
84	
124	
104	
98	
87	
94	
97	
109	
91	
116	
101	
90	
98	
104	
111	
95	
115	
95	
102	
99	
94	
86	
77	
99	
94	
98	
94	
86	
98	
98	
92	
111	
90	
102	
89	
111	
93	
114	
115	
94	
84	
87	
93	
94	
107	
121	
99	
96	
100	
100	
108	
99	
100	
96	
94	
106	
90	
99	
80	
93	
95	
87	
104	
99	
96	
111	
98	
99	
87	
97	
89	
93	
97	
102	
100	
78	
97	
91	
93	
81	
93	
85	
107	
74	
94	
110	
100	
99	
87	
105	
76	
99	
101	
89	
109	
91	
90	
103	
87	
95	
106	
110	
104	
96	
94	
88	
107	
100	
93	
105	
115	
86	
96	
96	
81	
92	
111	
94	
93	
105	
95	
82	
111	
74	
83	
88	
88	
96	
99	
82	
95	
101	
91	
86	
102	
102	
83	
89	
95	
109	
98	
95	
100	
99	
105	
87	
79	
80	
88	
101	
111	
95	
100	
82	
115	
105	
90	
77	
103	
91	
94	
108	
94	
85	
103	
82	
85	
94	
86	
111	
77	
102	
84	
107	
99	
95	
94	
85	
83	
100	
94	
103	
81	
100	
81	
95	
98	
110	
95	
85	
78	
112	
83	
88	
112	
98	
78	
107	
91	
97	
81	
106	
93	
102	
95	
96	
90	
112	
73	
102	
112	
75	
85	
97	
89	
79	
102	
94	
91	
88	
93	
107	
73	
89	
94	
87	
110	
84	
76	
99	
93	
95	
106	
98	
102	
84	
83	
99	
93	
99	
106	
101	
100	
84	
113	
90	
97	
88	
89	
91	
83	
84	
108	
99	
73	
90	
94	
88	
81	
99	
84	
87	
84	
86	
95	
90	
79	
105	
89	
83	
88	
89	
116	
85	
97	
97	
88	
116	
94	
74	
84	
93	
79	
82	
86	
103	
101	
80	
95	
102	
106	
86	
89	
79	
102	
93	
99	
109	
90	
101	
92	
90	
95	
95	
97	
76	
95	
88	
90	
96	
90	
84	
75	
98	
76	
82	
104	
82	
92	
89	
93	
78	
85	
72	
92	
75	
80	
89	
78	
80	
106	
107	
83	
79	
86	
95	
91	
91	
98	
94	
95	
95	
91	
88	
105	
80	
92	
117	
84	
67	
81	
101	
94	
94	
84	
73	
93	
80	
88	
98	
102	
96	
84	
96	
82	
99	
85	
73	
72	
96	
79	
89	
80	
102	
76	
69	
88	
88	
95	
78	
89	
87	
91	
97	
79	
81	
88	
100	
94	
85	
91	
90	
104	
87	
101	
80	
87	
76	
91	
90	
79	
91	
96	
96	
84	
78	
80	
102	
82	
95	
86	
91	
88	
78	
90	
92	
81	
86	
82	
74	
81	
103	
93	
76	
95	
98	
87	
88	
91	
76	
91	
73	
110	
84	
106	
95	
90	
83	
89	
80	
85	
95	
78	
97	
72	
83	
90	
92	
83	
96	
83	
98	
72	
89	
92	
72	
93	
94	
81	
100	
91	
87	
83	
88	
83	
91	
90	
81	
84	
88	
91	
89	
81	
98	
84	
104	
73	
86	
84	
85	
102	
79	
82	
69	
85	
105	
82	
108	
91	
80	
78	
98	
86	
75	
78	
86	
87	
96	
95	
88	
105	
91	
96	
82	
85	
72	
97	
78	
93	
74	
95	
86	
77	
91	
84	
73	
83	
91	
85	
88	
81	
90	
79	
89	
73	
88	
81	
86	
103	
84	
81	
95	
92	
84	
84	
99	
86	
76	
108	
89	
86	
85	
80	
98	
70	
88	
81	
89	
88	
67	
89	
77	
90	
87	
82	
89	
77	
84	
82	
90	
91	
81	
74	
92	
120	
85	
84	
94	
98	
92	
91	
114	
102	
81	
83	
67	
81	
92	
79	
87	
74	
74	
81	
82	
89	
100	
86	
80	
89	
73	
87	
77	
84	
77	
81	
82	
66	
96	
83	
85	
89	
83	
64	
78	
68	
87	
81	
79	
84	
79	
87	
83	
73	
94	
98	
94	
86	
93	
84	
86	
79	
83	
70	
80	
85	
91	
83	
80	
97	
73	
91	
77	
84	
76	
91	
77	
83	
87	
73	
80	
94	
84	
70	
79	
85	
79	
98	
87	
77	
77	
70	
76	
79	
88	
81	
84	
95	
96	
68	
84	
78	
103	
75	
72	
90	
78	
86	
76	
88	
58	
83	
90	
74	
83	
80	
93	
72	
68	
73	
83	
87	
69	
70	
90	
74	
71	
84	
73	
77	
79	
91	
84	
79	
89	
74	
84	
71	
85	
78	
95	
79	
73	
83	
77	
74	
75	
78	
85	
77	
64	
81	
75	
68	
85	
61	
64	
83	
68	
93	
86	
65	
84	
82	
81	
70	
81	
81	
92	
78	
76	
82	
65	
75	
77	
66	
76	
73	
89	
92	
92	
75	
71	
83	
87	
85	
83	
74	
82	
81	
85	
81	
93	
81	
77	
82	
87	
95	
69	
117	
87	
89	
67	
72	
99	
94	
81	
76	
93	
87	
89	
76	
82	
87	
75	
87	
86	
81	
80	
76	
83	
91	
72	
84	
71	
83	
70	
78	
66	
99	
87	
84	
78	
78	
61	
74	
85	
90	
76	
84	
71	
85	
70	
81	
91	
82	
80	
76	
59	
77	
70	
89	
85	
71	
87	
78	
103	
102	
80	
73	
64	
82	
83	
80	
82	
68	
88	
85	
84	
95	
74	
83	
59	
80	
76	
84	
91	
84	
79	
77	
77	
72	
74	
86	
83	
80	
91	
60	
81	
82	
78	
75	
80	
76	
85	
45	
72	
71	
66	
64	
80	
73	
81	
56	
77	
75	
54	
96	
88	
72	
71	
78	
74	
74	
83	
84	
78	
73	
83	
77	
78	
80	
101	
75	
82	
73	
69	
70	
79	
67	
79	
84	
101	
81	
83	
70	
75	
67	
94	
79	
78	
66	
64	
76	
60	
82	
76	
81	
71	
61	
86	
71	
77	
90	
92	
82	
80	
86	
75	
93	
67	
82	
70	
73	
79	
77	
76	
77	
72	
79	
89	
95	
82	
67	
57	
96	
96	
70	
67	
79	
84	
79	
60	
69	
79	
72	
74	
72	
58	
70	
76	
77	
80	
102	
86	
72	
74	
77	
65	
70	
74	
76	
60	
51	
63	
79	
96	
80	
99	
74	
66	
70	
77	
69	
87	
76	
85	
62	
68	
74	
85	
67	
72	
74	
67	
64	
62	
76	
75	
81	
82	
65	
73	
73	
83	
92	
74	
72	
67	
90	
74	
81	
82	
81	
66	
69	
72	
73	
76	
88	
71	
82	
72	
78	
80	
55	
65	
84	
89	
71	
85	
85	
69	
75	
80	
78	
80	
86	
73	
72	
76	
66	
77	
72	
82	
74	
70	
60	
75	
68	
81	
80	
71	
86	
75	
87	
86	
62	
65	
75	
77	
84	
78	
82	
69	
67	
77	
68	
68	
70	
77	
56	
64	
78	
68	
70	
69	
69	
61	
79	
70	
71	
71	
71	
80	
69	
69	
76	
85	
56	
87	
77	
70	
63	
65	
69	
74	
74	
66	
82	
80	
71	
71	
80	
85	
87	
75	
69	
86	
77	
75	
82	
73	
81	
70	
59	
71	
55	
63	
77	
81	
66	
81	
85	
76	
64	
69	
70	
66	
65	
77	
72	
80	
71	
55	
73	
58	
73	
95	
83	
51	
73	
62	
90	
76	
66	
65	
72	
62	
72	
70	
63	
74	
77	
75	
80	
61	
93	
83	
76	
69	
75	
78	
92	
70	
81	
64	
69	
91	
56	
65	
81	
76	
80	
79	
83	
71	
68	
85	
67	
75	
72	
76	
91	
73	
72	
68	
68	
83	
67	
64	
52	
64	
77	
74	
79	
81	
78	
65	
81	
67	
78	
72	
89	
67	
89	
75	
82	
73	
76	
77	
71	
66	
64	
72	
68	
67	
75	
79	
70	
81	
74	
76	
86	
78	
69	
71	
63	
59	
75	
76	
60	
82	
83	
65	
68	
68	
78	
77	
59	
74	
60	
92	
74	
69	
85	
73	
65	
68	
73	
68	
59	
72	
75	
68	
67	
87	
63	
71	
78	
61	
81	
71	
66	
64	
76	
76	
83	
65	
71	
60	
86	
71	
65	
69	
82	
72	
61	
63	
69	
69	
59	
71	
79	
76	
70	
77	
71	
84	
81	
83	
85	
56	
72	
75	
64	
67	
72	
80	
70	
73	
72	
79	
70	
81	
65	
80	
68	
76	
90	
88	
66	
70	
76	
74	
71	
79	
77	
66	
80	
77	
78	
62	
81	
72	
60	
76	
77	
73	
60	
77	
75	
72	
57	
67	
64	
61	
67	
74	
76	
73	
68	
72	
76	
70	
56	
75	
61	
73	
74	
79	
59	
75	
67	
67	
66	
73	
75	
69	
65	
56	
58	
55	
62	
69	
90	
53	
79	
75	
88	
80	
77	
66	
68	
77	
79	
68	
58	
58	
63	
68	
54	
70	
61	
67	
76	
67	
53	
72	
75	
81	
79	
65	
81	
71	
68	
54	
78	
82	
63	
83	
70	
62	
73	
67	
70	
83	
69	
81	
82	
65	
67	
77	
69	
75	
68	
60	
71	
92	
62	
76	
65	
56	
62	
58	
77	
51	
66	
71	
64	
57	
62	
65	
62	
75	
54	
70	
67	
71	
61	
74	
72	
57	
66	
64	
73	
54	
79	
76	
61	
65	
70	
72	
73	
84	
72	
55	
87	
78	
91	
69	
77	
68	
66	
58	
78	
64	
69	
49	
81	
63	
70	
56	
67	
57	
63	
71	
80	
76	
64	
65	
71	
72	
56	
66	
63	
54	
59	
75	
59	
71	
57	
51	
71	
77	
79	
71	
65	
67	
63	
59	
71	
91	
78	
60	
67	
65	
82	
69	
74	
76	
72	
50	
50	
72	
66	
66	
58	
68	
71	
87	
76	
73	
67	
72	
71	
68	
76	
91	
65	
72	
69	
57	
62	
74	
63	
70	
70	
71	
70	
64	
69	
63	
57	
68	
71	
78	
65	
72	
74	
58	
52	
63	
63	
62	
48	
65	
70	
69	
68	
58	
71	
80	
73	
88	
69	
56	
53	
74	
60	
86	
63	
56	
67	
69	
73	
71	
65	
64	
60	
68	
63	
62	
72	
68	
60	
75	
58	
65	
78	
69	
67	
60	
65	
68	
47	
54	
59	
74	
56	
79	
61	
63	
59	
62	
62	
68	
63	
59	
66	
66	
69	
58	
65	
68	
65	
65	
75	
67	
80	
58	
84	
80	
89	
47	
61	
67	
53	
55	
53	
61	
68	
61	
75	
63	
65	
52	
70	
53	
59	
69	
63	
72	
72	
67	
60	
67	
63	
71	
69	
76	
74	
72	
77	
71	
69	
51	
59	
63	
47	
57	
64	
80	
73	
52	
66	
82	
66	
57	
77	
67	
54	
68	
77	
70	
74	
75	
62	
67	
68	
64	
56	
80	
67	
67	
69	
58	
73	
73	
71	
56	
74	
57	
65	
69	
64	
65	
67	
77	
63	
58	
69	
65	
75	
75	
71	
75	
63	
58	
74	
65	
60	
54	
72	
81	
50	
72	
70	
55	
73	
52	
64	
61	
57	
56	
62	
59	
57	
51	
55	
54	
55	
60	
60	
66	
63	
63	
66	
66	
73	
61	
62	
53	
68	
58	
76	
64	
68	
59	
72	
59	
60	
63	
72	
61	
67	
60	
62	
53	
56	
68	
51	
63	
58	
70	
45	
62	
62	
68	
74	
74	
59	
67	
56	
51	
53	
61	
78	
71	
74	
55	
65	
73	
66	
70	
71	
60	
69	
59	
58	
66	
70	
73	
50	
73	
65	
59	
56	
57	
58	
85	
54	
65	
57	
59	
58	
59	
62	
67	
68	
54	
58	
66	
75	
72	
54	
66	
62	
47	
59	
61	
61	
68	
62	
69	
57	
72	
48	
59	
63	
61	
65	
62	
67	
67	
60	
64	
56	
61	
54	
67	
58	
65	
69	
55	
54	
69	
54	
52	
59	
63	
67	
56	
57	
64	
60	
61	
49	
46	
44	
59	
54	
64	
62	
58	
67	
70	
63	
53	
71	
58	
51	
69	
62	
57	
78	
50	
64	
69	
66	
63	
66	
65	
57	
54	
80	
59	
57	
58	
70	
59	
67	
56	
59	
56	
74	
55	
53	
50	
56	
64	
53	
87	
73	
68	
62	
64	
65	
71	
57	
78	
50	
62	
67	
54	
55	
54	
49	
55	
60	
59	
65	
72	
67	
76	
54	
63	
56	
61	
56	
67	
62	
61	
67	
55	
63	
56	
45	
58	
51	
76	
64	
69	
59	
61	
55	
57	
52	
58	
49	
88	
65	
63	
54	
70	
60	
68	
68	
67	
63	
48	
65	
53	
45	
69	
49	
80	
76	
54	
73	
55	
61	
62	
57	
54	
48	
68	
51	
57	
58	
60	
61	
60	
71	
49	
51	
74	
51	
68	
65	
57	
67	
76	
61	
66	
64	
60	
51	
49	
64	
64	
56	
64	
64	
70	
68	
59	
55	
53	
63	
45	
58	
61	
64	
63	
63	
52	
62	
50	
54	
56	
52	
60	
66	
74	
61	
77	
55	
58	
78	
57	
67	
69	
60	
60	
65	
64	
68	
57	
53	
57	
71	
64	
62	
62	
67	
54	
55	
59	
57	
55	
53	
59	
67	
56	
74	
54	
61	
60	
60	
65	
46	
66	
50	
51	
59	
56	
61	
58	
52	
55	
72	
58	
74	
48	
49	
61	
60	
65	
63	
58	
59	
72	
53	
65	
60	
69	
63	
65	
70	
57	
59	
52	
48	
64	
67	
58	
51	
65	
56	
49	
74	
55	
55	
55	
69	
64	
63	
54	
61	
66	
61	
48	
52	
64	
65	
55	
63	
59	
62	
62	
73	
55	
80	
58	
52	
60	
52	
56	
63	
45	
57	
59	
55	
54	
63	
62	
58	
46	
60	
53	
56	
63	
64	
65	
63	
59	
48	
58	
56	
55	
66	
54	
62	
53	
63	
50	
65	
60	
55	
65	
69	
48	
52	
61	
45	
58	
56	
63	
44	
59	
57	
55	
59	
60	
59	
50	
50	
60	
58	
65	
57	
59	
56	
60	
56	
57	
60	
66	
66	
63	
73	
68	
61	
58	
58	
54	
57	
57	
57	
50	
61	
48	
54	
48	
48	
73	
56	
58	
50	
60	
82	
59	
53	
65	
49	
58	
46	
63	
58	
57	
43	
53	
57	
56	
70	
54	
59	
61	
81	
46	
57	
62	
55	
65	
55	
47	
63	
57	
50	
58	
59	
52	
45	
53	
66	
53	
53	
50	
74	
55	
60	
56	
55	
49	
65	
71	
62	
65	
62	
48	
59	
63	
68	
55	
72	
58	
63	
50	
58	
67	
40	
57	
65	
51	
55	
54	
52	
54	
47	
50	
53	
50	
70	
53	
54	
51	
65	
48	
69	
62	
54	
59	
55	
49	
44	
52	
54	
64	
53	
49	
50	
57	
67	
60	
44	
60	
50	
59	
59	
45	
61	
44	
66	
57	
68	
57	
43	
39	
58	
51	
45	
52	
56	
68	
42	
57	
64	
65	
76	
47	
46	
63	
63	
50	
49	
47	
57	
69	
61	
58	
65	
54	
54	
73	
55	
62	
60	
50	
59	
48	
52	
45	
66	
58	
52	
60	
66	
57	
66	
65	
48	
67	
46	
50	
50	
63	
56	
66	
54	
52	
64	
70	
58	
59	
64	
59	
55	
51	
47	
47	
58	
66	
44	
47	
69	
50	
66	
51	
54	
48	
42	
50	
60	
51	
47	
56	
63	
50	
46	
65	
55	
55	
54	
60	
54	
69	
49	
48	
59	
54	
53	
53	
74	
55	
69	
52	
47	
60	
55	
38	
47	
53	
41	
61	
54	
54	
74	
59	
56	
48	
55	
66	
56	
56	
49	
51	
51	
56	
41	
42	
61	
69	
59	
46	
53	
43	
56	
50	
57	
56	
55	
63	
52	
49	
57	
46	
60	
53	
47	
54	
49	
64	
63	
52	
59	
52	
40	
62	
51	
61	
48	
74	
69	
54	
55	
58	
54	
58	
53	
46	
55	
53	
38	
60	
45	
57	
58	
55	
58	
49	
42	
45	
44	
48	
56	
52	
62	
57	
51	
54	
46	
52	
58	
67	
44	
52	
54	
54	
58	
61	
45	
64	
51	
60	
65	
53	
45	
43	
57	
52	
59	
64	
60	
57	
55	
57	
54	
65	
56	
46	
45	
62	
51	
46	
60	
53	
51	
42	
59	
59	
47	
56	
57	
54	
42	
55	
53	
59	
49	
46	
46	
59	
52	
51	
53	
53	
46	
62	
52	
51	
53	
48	
63	
52	
62	
59	
48	
58	
69	
51	
60	
47	
41	
68	
56	
56	
53	
67	
65	
49	
53	
57	
61	
63	
72	
58	
56	
44	
50	
66	
56	
45	
70	
43	
58	
49	
53	
50	
39	
52	
67	
53	
51	
59	
52	
48	
40	
56	
49	
54	
60	
48	
51	
64	
59	
46	
48	
47	
53	
55	
61	
64	
59	
42	
44	
51	
37	
48	
57	
44	
61	
54	
42	
72	
63	
62	
53	
51	
54	
47	
50	
54	
54	
52	
42	
66	
55	
46	
49	
63	
39	
49	
47	
45	
65	
48	
52	
47	
43	
41	
40	
49	
41	
54	
59	
49	
57	
44	
56	
50	
52	
55	
61	
58	
52	
50	
46	
50	
44	
54	
55	
53	
45	
36	
49	
58	
64	
52	
52	
48	
42	
49	
56	
43	
67	
44	
47	
66	
48	
55	
59	
49	
59	
54	
50	
45	
59	
46	
54	
36	
59	
48	
45	
59	
49	
47	
48	
45	
52	
66	
50	
40	
49	
62	
46	
40	
57	
49	
54	
55	
52	
46	
64	
51	
48	
52	
42	
45	
47	
54	
54	
46	
54	
55	
54	
56	
39	
58	
63	
67	
49	
42	
52	
45	
34	
50	
54	
57	
53	
60	
41	
45	
48	
61	
50	
40	
54	
72	
45	
55	
53	
52	
46	
54	
46	
56	
40	
59	
45	
54	
52	
53	
53	
55	
49	
56	
54	
41	
47	
68	
45	
53	
57	
49	
57	
46	
62	
50	
66	
48	
57	
48	
55	
56	
42	
41	
51	
50	
55	
43	
54	
51	
48	
46	
47	
61	
46	
51	
65	
47	
48	
48	
63	
44	
51	
56	
51	
54	
51	
55	
46	
45	
49	
51	
39	
51	
52	
56	
56	
61	
52	
57	
40	
44	
60	
49	
44	
37	
43	
49	
59	
64	
41	
51	
55	
62	
58	
44	
53	
55	
47	
46	
53	
69	
52	
45	
42	
42	
55	
45	
45	
55	
55	
55	
40	
48	
42	
47	
50	
56	
47	
56	
50	
63	
47	
47	
47	
46	
42	
46	
42	
45	
43	
47	
50	
44	
60	
37	
53	
50	
43	
58	
60	
49	
50	
43	
52	
45	
45	
47	
42	
49	
55	
52	
44	
49	
50	
49	
45	
37	
56	
56	
47	
41	
49	
52	
46	
46	
61	
49	
53	
47	
35	
48	
51	
61	
41	
50	
44	
42	
47	
57	
53	
63	
50	
58	
36	
48	
45	
56	
49	
51	
29	
38	
50	
50	
46	
60	
52	
48	
50	
45	
56	
57	
55	
48	
42	
43	
45	
55	
50	
52	
45	
55	
50	
59	
38	
40	
50	
59	
52	
64	
49	
52	
60	
48	
48	
32	
54	
61	
47	
44	
62	
38	
32	
36	
47	
47	
39	
53	
35	
55	
44	
58	
44	
42	
52	
59	
44	
62	
43	
39	
49	
49	
52	
47	
52	
43	
53	
46	
49	
50	
56	
44	
54	
43	
45	
48	
67	
42	
41	
52	
49	
59	
46	
46	
40	
51	
50	
55	
50	
43	
48	
50	
56	
50	
49	
45	
51	
55	
44	
54	
46	
62	
48	
48	
49	
49	
45	
49	
57	
49	
42	
35	
48	
37	
38	
42	
45	
55	
54	
49	
56	
50	
49	
47	
55	
56	
48	
52	
55	
42	
43	
48	
43	
51	
47	
44	
55	
56	
41	
57	
53	
40	
54	
70	
42	
48	
50	
41	
42	
51	
44	
48	
56	
52	
48	
46	
43	
53	
48	
50	
54	
56	
43	
56	
58	
46	
41	
49	
47	
57	
55	
63	
58	
56	
48	
48	
41	
52	
42	
42	
51	
52	
51	
52	
42	
46	
53	
49	
38	
54	
48	
51	
52	
48	
57	
41	
48	
40	
45	
59	
55	
52	
52	
46	
47	
48	
60	
34	
51	
50	
44	
48	
45	
39	
54	
57	
49	
55	
39	
50	
52	
29	
52	
47	
47	
46	
41	
49	
38	
49	
43	
70	
45	
45	
48	
42	
53	
46	
48	
38	
44	
44	
52	
50	
46	
54	
55	
42	
58	
54	
43	
38	
44	
40	
54	
38	
57	
46	
42	
53	
42	
57	
58	
43	
45	
47	
55	
43	
45	
49	
44	
48	
43	
42	
54	
62	
44	
52	
47	
37	
43	
41	
51	
38	
45	
43	
41	
49	
47	
56	
41	
48	
48	
47	
45	
36	
43	
39	
46	
42	
59	
40	
49	
54	
43	
53	
45	
56	
46	
43	
39	
44	
49	
54	
47	
47	
52	
45	
44	
39	
50	
45	
38	
54	
54	
42	
42	
51	
56	
49	
36	
46	
47	
42	
36	
43	
51	
38	
45	
43	
49	
49	
47	
56	
44	
39	
40	
55	
49	
37	
59	
34	
41	
52	
46	
50	
49	
38	
59	
37	
47	
43	
61	
43	
48	
47	
49	
43	
51	
38	
32	
40	
38	
43	
53	
42	
54	
57	
39	
44	
47	
40	
51	
49	
36	
43	
49	
42	
47	
32	
38	
40	
50	
37	
53	
41	
57	
56	
54	
46	
44	
35	
51	
60	
36	
39	
44	
46	
40	
59	
44	
30	
40	
45	
43	
43	
36	
40	
41	
42	
50	
46	
50	
44	
46	
51	
36	
44	
46	
50	
43	
45	
45	
42	
51	
49	
42	
50	
49	
51	
50	
46	
50	
47	
40	
43	
50	
58	
43	
41	
41	
44	
33	
37	
48	
51	
54	
49	
39	
42	
53	
55	
38	
54	
34	
54	
42	
45	
38	
48	
37	
52	
39	
35	
46	
63	
46	
49	
42	
38	
38	
42	
45	
55	
39	
52	
33	
37	
41	
49	
51	
43	
56	
38	
39	
49	
46	
50	
39	
55	
48	
31	
55	
52	
46	
43	
43	
41	
34	
43	
39	
57	
50	
34	
47	
39	
32	
37	
41	
49	
54	
42	
59	
39	
44	
48	
39	
43	
46	
37	
48	
51	
39	
49	
40	
45	
54	
50	
46	
51	
32	
48	
43	
43	
39	
42	
41	
45	
46	
51	
43	
39	
40	
49	
47	
49	
27	
47	
46	
43	
43	
45	
46	
53	
41	
43	
48	
43	
50	
51	
50	
31	
44	
43	
45	
35	
46	
36	
62	
37	
48	
52	
44	
36	
36	
49	
49	
40	
54	
44	
44	
44	
54	
51	
50	
33	
39	
47	
42	
40	
44	
47	
50	
49	
40	
45	
37	
40	
44	
47	
46	
49	
39	
49	
39	
44	
42	
49	
42	
42	
64	
47	
48	
39	
47	
46	
35	
54	
42	
33	
36	
35	
44	
45	
42	
45	
51	
36	
53	
45	
52	
46	
43	
46	
47	
56	
51	
39	
46	
57	
54	
52	
41	
34	
41	
41	
49	
45	
28	
53	
47	
61	
43	
33	
37	
48	
46	
41	
38	
44	
47	
36	
48	
41	
48	
40	
40	
55	
35	
56	
46	
28	
45	
39	
42	
38	
50	
45	
41	
50	
49	
41	
46	
43	
40	
39	
42	
44	
46	
36	
47	
40	
39	
50	
35	
44	
41	
55	
38	
22	
53	
40	
43	
45	
45	
36	
50	
44	
47	
54	
47	
35	
49	
55	
38	
43	
40	
41	
40	
43	
58	
33	
48	
36	
52	
46	
61	
51	
54	
46	
41	
26	
46	
38	
36	
40	
34	
47	
38	
37	
43	
36	
43	
45	
39	
48	
46	
37	
33	
35	
41	
51	
51	
45	
42	
40	
40	
35	
42	
53	
44	
39	
46	
39	
39	
61	
42	
42	
48	
42	
44	
53	
31	
43	
48	
44	
39	
34	
48	
48	
46	
32	
46	
40	
51	
46	
43	
39	
48	
49	
50	
41	
47	
43	
49	
47	
31	
46	
33	
53	
39	
35	
40	
45	
61	
54	
39	
43	
46	
52	
40	
45	
44	
42	
37	
46	
39	
33	
31	
43	
44	
39	
44	
41	
40	
45	
39	
37	
42	
38	
51	
37	
47	
46	
28	
50	
50	
45	
39	
50	
34	
41	
43	
36	
57	
42	
49	
40	
53	
53	
36	
57	
54	
40	
42	
42	
52	
48	
44	
33	
45	
48	
41	
36	
49	
27	
41	
49	
35	
44	
45	
38	
42	
57	
44	
37	
45	
40	
50	
34	
43	
36	
47	
51	
46	
42	
42	
35	
39	
40	
48	
57	
36	
50	
52	
42	
39	
51	
35	
39	
35	
57	
39	
38	
41	
33	
47	
47	
51	
40	
44	
42	
42	
47	
25	
40	
41	
51	
43	
44	
42	
38	
41	
45	
41	
38	
43	
43	
44	
43	
48	
35	
42	
39	
40	
37	
33	
41	
40	
44	
43	
46	
39	
37	
36	
43	
51	
34	
35	
39	
40	
52	
39	
38	
51	
43	
38	
47	
53	
44	
33	
47	
37	
32	
34	
42	
47	
34	
54	
39	
34	
45	
44	
45	
47	
27	
35	
32	
49	
31	
55	
32	
44	
36	
44	
37	
40	
41	
34	
59	
35	
32	
34	
45	
46	
27	
36	
41	
37	
35	
45	
36	
39	
49	
43	
51	
46	
34	
35	
36	
35	
55	
46	
51	
33	
48	
43	
35	
51	
33	
43	
38	
36	
39	
39	
44	
35	
43	
43	
46	
57	
40	
47	
35	
44	
41	
35	
50	
32	
35	
41	
30	
37	
39	
43	
31	
35	
45	
41	
35	
42	
45	
43	
43	
50	
29	
41	
46	
43	
50	
37	
50	
55	
42	
43	
44	
44	
35	
47	
42	
35	
43	
38	
39	
34	
52	
42	
44	
46	
44	
32	
40	
28	
43	
47	
59	
50	
45	
48	
44	
47	
37	
43	
41	
33	
54	
29	
44	
50	
55	
45	
32	
22	
42	
43	
49	
34	
43	
35	
37	
31	
39	
38	
44	
37	
35	
37	
45	
44	
49	
56	
41	
40	
48	
31	
46	
33	
38	
41	
46	
37	
38	
36	
36	
49	
50	
40	
53	
52	
40	
26	
33	
45	
38	
44	
39	
43	
30	
38	
40	
31	
40	
39	
35	
37	
36	
30	
37	
34	
44	
48	
38	
40	
40	
34	
37	
32	
42	
35	
30	
47	
40	
39	
33	
36	
39	
35	
32	
34	
40	
42	
40	
35	
44	
51	
43	
48	
45	
29	
40	
46	
41	
47	
46	
36	
34	
39	
39	
39	
43	
39	
46	
28	
39	
56	
41	
39	
33	
37	
41	
32	
33	
48	
36	
44	
38	
35	
39	
39	
44	
42	
36	
29	
46	
35	
37	
40	
56	
40	
36	
38	
45	
36	
33	
42	
38	
37	
47	
33	
43	
28	
47	
42	
44	
44	
42	
40	
45	
46	
49	
32	
41	
43	
38	
42	
36	
40	
38	
31	
53	
30	
52	
47	
34	
38	
33	
37	
38	
37	
45	
37	
44	
47	
30	
44	
36	
36	
28	
40	
46	
36	
26	
41	
38	
42	
38	
28	
43	
42	
37	
42	
31	
44	
35	
37	
35	
31	
24	
43	
35	
40	
43	
35	
30	
38	
33	
46	
39	
42	
49	
29	
30	
36	
41	
41	
38	
36	
40	
47	
41	
55	
44	
31	
33	
33	
39	
32	
32	
41	
33	
27	
41	
45	
34	
43	
45	
33	
34	
46	
42	
38	
32	
43	
40	
49	
43	
53	
38	
36	
35	
40	
34	
33	
38	
44	
36	
45	
30	
41	
29	
49	
39	
32	
39	
37	
38	
40	
35	
34	
34	
30	
35	
40	
37	
41	
43	
36	
37	
40	
48	
45	
33	
31	
38	
40	
32	
37	
41	
49	
43	
34	
38	
41	
43	
47	
33	
43	
43	
38	
31	
35	
33	
47	
34	
53	
40	
38	
41	
39	
30	
41	
43	
41	
42	
39	
33	
33	
30	
33	
34	
38	
42	
31	
49	
35	
40	
55	
38	
35	
55	
46	
40	
41	
43	
34	
31	
36	
41	
39	
37	
38	
36	
40	
44	
40	
38	
37	
37	
43	
29	
38	
38	
40	
41	
40	
27	
34	
34	
45	
37	
49	
32	
44	
26	
52	
47	
45	
37	
31	
35	
33	
39	
35	
38	
37	
39	
28	
36	
35	
37	
45	
39	
39	
37	
33	
27	
31	
36	
40	
41	
37	
31	
50	
35	
38	
37	
32	
31	
36	
36	
40	
38	
38	
39	
33	
33	
33	
44	
34	
37	
37	
37	
47	
38	
36	
40	
30	
32	
33	
33	
33	
36	
48	
51	
36	
35	
36	
50	
31	
47	
45	
31	
50	
36	
33	
32	
35	
37	
31	
24	
33	
48	
28	
42	
49	
46	
33	
30	
46	
38	
30	
34	
34	
35	
36	
27	
41	
46	
32	
30	
47	
44	
36	
36	
26	
46	
22	
35	
36	
38	
33	
38	
34	
24	
36	
42	
27	
33	
43	
42	
53	
37	
41	
35	
38	
30	
35	
39	
37	
36	
44	
23	
38	
35	
35	
40	
26	
30	
38	
32	
30	
46	
39	
36	
33	
26	
38	
26	
43	
41	
41	
36	
41	
40	
44	
39	
23	
42	
30	
51	
40	
42	
35	
26	
40	
43	
43	
40	
44	
39	
35	
42	
42	
41	
34	
48	
32	
32	
40	
32	
29	
35	
34	
40	
26	
34	
37	
52	
33	
32	
46	
47	
37	
28	
37	
31	
34	
29	
47	
44	
31	
38	
37	
28	
33	
47	
46	
39	
46	
44	
27	
44	
37	
36	
38	
33	
31	
29	
38	
32	
35	
48	
46	
25	
27	
32	
32	
41	
32	
34	
36	
33	
39	
28	
25	
35	
33	
37	
39	
46	
50	
46	
34	
36	
38	
36	
35	
30	
34	
34	
40	
40	
37	
34	
44	
38	
35	
28	
37	
29	
32	
26	
37	
35	
42	
35	
40	
40	
54	
44	
29	
40	
38	
34	
34	
44	
33	
33	
29	
27	
33	
38	
33	
32	
41	
45	
30	
37	
39	
42	
39	
44	
43	
35	
36	
36	
42	
46	
38	
38	
32	
44	
29	
29	
29	
44	
36	
34	
38	
50	
27	
31	
30	
33	
44	
39	
37	
33	
41	
32	
41	
47	
35	
36	
34	
35	
35	
34	
39	
26	
44	
39	
30	
37	
38	
41	
32	
42	
34	
36	
31	
38	
43	
31	
39	
41	
24	
28	
31	
40	
39	
42	
42	
32	
25	
38	
46	
33	
32	
39	
34	
29	
25	
30	
45	
33	
39	
33	
36	
27	
42	
28	
39	
44	
33	
31	
44	
36	
39	
32	
27	
30	
31	
40	
40	
42	
28	
33	
28	
28	
33	
32	
31	
35	
34	
34	
41	
41	
37	
31	
36	
46	
29	
44	
39	
45	
30	
31	
37	
32	
34	
27	
38	
57	
39	
22	
40	
36	
30	
36	
26	
28	
35	
35	
45	
33	
41	
37	
29	
37	
36	
38	
31	
31	
28	
34	
28	
24	
32	
41	
49	
29	
40	
30	
34	
37	
33	
29	
48	
28	
39	
37	
34	
41	
39	
29	
33	
37	
34	
42	
34	
30	
41	
35	
37	
28	
39	
25	
26	
35	
44	
25	
29	
36	
37	
27	
36	
27	
40	
36	
44	
38	
35	
40	
44	
39	
33	
44	
42	
31	
41	
40	
40	
40	
37	
35	
25	
36	
30	
27	
44	
44	
37	
30	
38	
35	
33	
30	
33	
37	
31	
27	
44	
32	
32	
27	
43	
36	
38	
22	
32	
53	
36	
32	
46	
36	
32	
34	
38	
39	
31	
33	
39	
45	
41	
37	
29	
31	
37	
33	
33	
40	
29	
33	
41	
31	
34	
34	
53	
29	
23	
36	
38	
32	
43	
28	
29	
35	
32	
31	
27	
41	
32	
32	
38	
30	
26	
38	
36	
29	
37	
39	
42	
30	
35	
31	
38	
39	
33	
35	
36	
39	
56	
35	
39	
36	
44	
29	
25	
34	
36	
38	
31	
35	
33	
23	
45	
33	
37	
23	
20	
34	
35	
32	
33	
33	
49	
38	
43	
30	
29	
26	
41	
45	
43	
39	
36	
47	
39	
34	
29	
37	
34	
47	
35	
37	
44	
23	
38	
42	
29	
42	
26	
32	
29	
35	
34	
41	
21	
29	
30	
38	
30	
31	
24	
32	
33	
35	
44	
39	
46	
39	
40	
31	
32	
33	
31	
31	
39	
49	
28	
30	
36	
33	
38	
36	
21	
39	
38	
42	
27	
39	
23	
27	
33	
28	
33	
34	
34	
34	
30	
31	
37	
32	
40	
35	
44	
25	
32	
24	
37	
45	
32	
36	
29	
42	
37	
28	
40	
32	
33	
39	
30	
25	
34	
39	
33	
30	
34	
22	
28	
38	
32	
31	
36	
40	
48	
27	
36	
35	
27	
34	
34	
41	
37	
36	
29	
39	
32	
43	
36	
32	
34	
38	
34	
29	
41	
35	
36	
29	
31	
32	
43	
30	
33	
27	
40	
33	
27	
28	
46	
24	
34	
38	
40	
31	
35	
29	
31	
36	
31	
27	
37	
36	
37	
39	
41	
36	
44	
30	
32	
37	
46	
38	
42	
29	
25	
40	
41	
34	
35	
32	
25	
34	
43	
32	
26	
33	
37	
37	
35	
27	
32	
36	
31	
27	
37	
29	
36	
29	
31	
27	
27	
36	
25	
36	
32	
27	
28	
26	
35	
41	
42	
37	
30	
36	
33	
25	
36	
37	
33	
38	
36	
28	
29	
35	
28	
26	
46	
36	
31	
34	
33	
23	
36	
27	
33	
39	
28	
29	
46	
37	
38	
43	
28	
31	
42	
32	
34	
40	
32	
38	
30	
29	
30	
38	
32	
41	
39	
22	
41	
29	
22	
29	
39	
38	
34	
27	
28	
36	
31	
20	
32	
31	
33	
29	
35	
26	
30	
33	
39	
40	
47	
32	
38	
34	
29	
27	
36	
29	
33	
28	
35	
37	
36	
31	
46	
24	
30	
33	
35	
41	
25	
29	
28	
28	
44	
27	
33	
26	
30	
31	
33	
41	
41	
28	
37	
35	
30	
37	
40	
31	
28	
38	
27	
24	
45	
28	
30	
28	
29	
38	
31	
38	
47	
28	
23	
28	
27	
35	
29	
49	
37	
28	
34	
32	
30	
36	
34	
18	
32	
24	
34	
26	
23	
40	
29	
34	
29	
36	
39	
22	
32	
38	
25	
47	
28	
36	
25	
33	
33	
30	
38	
38	
30	
34	
26	
20	
22	
26	
22	
32	
30	
35	
24	
24	
28	
27	
33	
21	
31	
27	
26	
26	
49	
35	
29	
35	
46	
30	
41	
31	
33	
41	
29	
33	
32	
25	
32	
25	
32	
40	
36	
38	
35	
27	
28	
31	
38	
32	
33	
29	
35	
44	
30	
23	
34	
30	
34	
37	
37	
38	
40	
26	
27	
28	
28	
37	
32	
28	
41	
33	
28	
35	
40	
33	
33	
37	
34	
23	
32	
33	
35	
33	
39	
41	
15	
37	
27	
28	
31	
31	
31	
33	
38	
26	
30	
30	
25	
38	
31	
32	
33	
36	
37	
25	
33	
27	
28	
28	
27	
30	
38	
41	
40	
32	
27	
31	
34	
37	
38	
26	
35	
30	
39	
29	
32	
37	
34	
28	
28	
33	
31	
34	
39	
33	
40	
29	
30	
30	
27	
25	
21	
27	
24	
27	
36	
36	
28	
26	
27	
30	
39	
35	
38	
28	
33	
26	
47	
30	
28	
26	
23	
38	
19	
27	
35	
36	
25	
24	
29	
30	
22	
37	
40	
35	
42	
25	
37	
31	
23	
29	
26	
28	
36	
36	
34	
43	
39	
31	
30	
29	
24	
27	
29	
33	
32	
38	
34	
30	
24	
33	
28	
35	
34	
27	
33	
36	
26	
29	
33	
34	
33	
36	
32	
30	
28	
39	
27	
36	
33	
36	
25	
33	
31	
27	
29	
34	
32	
31	
23	
32	
37	
16	
41	
39	
31	
35	
31	
28	
40	
26	
31	
35	
30	
24	
35	
30	
29	
38	
26	
23	
22	
31	
28	
36	
30	
20	
21	
29	
32	
24	
40	
25	
23	
31	
30	
24	
28	
35	
30	
32	
29	
33	
30	
19	
27	
26	
27	
43	
33	
28	
35	
26	
31	
28	
37	
24	
28	
28	
25	
37	
35	
31	
17	
30	
39	
41	
27	
27	
27	
27	
19	
27	
22	
37	
36	
27	
28	
27	
31	
27	
33	
28	
37	
37	
43	
30	
31	
29	
31	
29	
23	
26	
29	
30	
28	
20	
24	
26	
34	
24	
19	
32	
24	
33	
32	
26	
41	
31	
27	
27	
28	
34	
33	
32	
32	
27	
31	
39	
26	
26	
35	
32	
27	
21	
35	
39	
34	
25	
21	
31	
29	
36	
25	
29	
23	
25	
26	
40	
38	
37	
25	
28	
34	
36	
28	
31	
39	
30	
36	
26	
26	
23	
27	
27	
32	
29	
27	
32	
27	
40	
29	
33	
24	
26	
21	
30	
33	
28	
34	
30	
32	
39	
24	
26	
41	
