#PicoHarp 300  Histogram Data			03/13/2023 04:15:57 PM
#channels per curve
31250
#display curve no.
0	
#memory block no.
0	
#ns/channel
0.1280	
#counts
3	
3	
1	
0	
3	
3	
2	
0	
2	
0	
0	
0	
2	
1	
5	
0	
1	
2	
2	
4	
0	
2	
0	
1	
1	
1	
3	
1	
0	
2	
2	
2	
2	
3	
1	
2	
0	
3	
4	
2	
1	
1	
0	
1	
1	
1	
1	
4	
3	
1	
0	
1	
1	
1	
0	
2	
3	
3	
3	
0	
1	
0	
2	
0	
1	
2	
2	
1	
1	
2	
1	
4	
2	
0	
3	
4	
2	
1	
1	
1	
2	
0	
3	
1	
0	
1	
0	
1	
1	
0	
1	
4	
1	
1	
1	
1	
0	
2	
0	
3	
2	
1	
0	
0	
3	
2	
1	
2	
1	
0	
1	
0	
1	
0	
3	
1	
0	
1	
2	
0	
2	
1	
0	
1	
0	
2	
0	
1	
0	
1	
2	
0	
1	
4	
3	
1	
0	
3	
1	
1	
1	
1	
2	
2	
2	
2	
2	
0	
1	
0	
0	
0	
0	
0	
2	
2	
2	
2	
2	
1	
2	
1	
0	
0	
0	
1	
4	
1	
1	
2	
0	
0	
2	
0	
2	
1	
2	
1	
4	
0	
2	
0	
3	
0	
2	
1	
2	
1	
0	
1	
1	
2	
0	
0	
2	
0	
0	
0	
1	
2	
4	
0	
2	
0	
0	
0	
5	
1	
2	
0	
1	
1	
1	
1	
2	
1	
1	
0	
2	
1	
0	
1	
1	
1	
1	
0	
0	
3	
2	
0	
2	
0	
2	
2	
3	
4	
0	
8	
11	
11	
5	
22	
32	
33	
44	
56	
90	
112	
142	
155	
150	
181	
199	
206	
220	
225	
240	
210	
223	
242	
222	
226	
217	
227	
216	
239	
244	
229	
190	
235	
200	
223	
205	
217	
221	
216	
205	
239	
223	
208	
228	
215	
208	
199	
224	
222	
228	
211	
213	
223	
224	
215	
228	
229	
195	
197	
219	
249	
195	
212	
230	
206	
227	
195	
252	
192	
226	
213	
200	
198	
237	
208	
206	
231	
205	
211	
192	
208	
225	
211	
222	
227	
211	
215	
224	
200	
203	
199	
196	
236	
203	
208	
217	
195	
221	
214	
214	
201	
202	
229	
206	
188	
218	
205	
215	
203	
195	
193	
230	
205	
197	
211	
205	
213	
206	
230	
188	
207	
207	
189	
206	
193	
214	
212	
200	
196	
209	
221	
198	
193	
200	
206	
212	
229	
209	
201	
180	
211	
213	
183	
197	
223	
200	
216	
198	
169	
181	
182	
196	
216	
195	
191	
186	
184	
196	
208	
202	
180	
187	
174	
201	
200	
213	
218	
190	
186	
214	
181	
204	
200	
214	
173	
195	
194	
203	
174	
180	
202	
217	
194	
221	
179	
221	
180	
187	
192	
182	
186	
205	
203	
220	
193	
191	
199	
192	
201	
191	
209	
184	
205	
227	
184	
208	
183	
184	
217	
186	
176	
184	
202	
157	
188	
200	
204	
180	
183	
195	
198	
206	
180	
195	
189	
167	
183	
176	
191	
181	
185	
177	
179	
204	
185	
163	
181	
235	
198	
193	
178	
176	
197	
189	
154	
173	
179	
174	
223	
175	
204	
182	
173	
180	
163	
189	
172	
181	
176	
176	
177	
177	
157	
194	
179	
200	
192	
184	
202	
204	
175	
195	
187	
170	
192	
190	
204	
196	
158	
160	
189	
190	
185	
207	
176	
183	
209	
172	
176	
163	
182	
193	
206	
197	
186	
176	
171	
187	
194	
171	
178	
206	
178	
168	
191	
169	
188	
177	
179	
173	
179	
158	
167	
199	
167	
183	
160	
182	
192	
185	
209	
162	
177	
173	
190	
201	
157	
191	
169	
170	
198	
191	
145	
171	
194	
173	
190	
175	
168	
189	
175	
201	
171	
160	
166	
185	
168	
171	
188	
191	
158	
158	
169	
190	
165	
185	
172	
187	
203	
194	
186	
152	
184	
147	
194	
180	
160	
177	
186	
175	
173	
174	
165	
167	
192	
175	
173	
190	
169	
167	
165	
185	
165	
185	
189	
178	
189	
166	
192	
180	
171	
181	
163	
168	
173	
155	
179	
199	
168	
171	
167	
166	
164	
196	
164	
190	
183	
172	
173	
196	
160	
188	
168	
171	
163	
157	
175	
163	
152	
160	
166	
183	
173	
172	
200	
150	
184	
165	
181	
174	
167	
150	
174	
184	
165	
153	
162	
153	
152	
188	
178	
164	
184	
172	
150	
169	
172	
176	
180	
190	
166	
175	
158	
173	
180	
168	
185	
171	
162	
170	
165	
159	
187	
178	
166	
162	
143	
172	
197	
184	
181	
198	
166	
181	
170	
190	
162	
187	
142	
164	
186	
151	
164	
173	
163	
154	
193	
187	
161	
180	
168	
180	
182	
154	
143	
162	
177	
157	
174	
162	
170	
180	
169	
147	
161	
201	
172	
148	
153	
172	
160	
171	
175	
166	
168	
157	
148	
174	
193	
169	
171	
172	
156	
185	
161	
147	
181	
164	
182	
154	
173	
145	
171	
139	
177	
184	
160	
151	
173	
163	
176	
154	
176	
150	
170	
154	
185	
162	
158	
169	
164	
171	
135	
160	
157	
144	
157	
146	
153	
186	
150	
167	
155	
162	
179	
142	
148	
182	
158	
146	
161	
141	
138	
162	
165	
150	
159	
175	
162	
140	
152	
174	
169	
156	
175	
165	
156	
177	
180	
163	
143	
156	
164	
178	
155	
166	
152	
182	
133	
151	
154	
168	
182	
143	
150	
170	
151	
152	
168	
148	
149	
157	
157	
141	
170	
144	
141	
150	
171	
150	
166	
173	
177	
148	
170	
165	
151	
152	
171	
168	
150	
160	
159	
137	
148	
158	
172	
155	
137	
159	
166	
152	
171	
161	
155	
166	
185	
138	
147	
160	
161	
168	
150	
169	
163	
170	
183	
165	
162	
177	
144	
161	
156	
151	
148	
156	
178	
150	
153	
148	
161	
121	
139	
174	
140	
141	
143	
151	
153	
153	
152	
137	
156	
158	
165	
151	
171	
141	
164	
179	
159	
147	
130	
144	
160	
175	
165	
171	
155	
163	
153	
154	
146	
151	
156	
168	
177	
145	
156	
147	
163	
148	
151	
157	
138	
159	
145	
147	
152	
149	
151	
139	
143	
151	
138	
159	
165	
146	
137	
140	
150	
139	
139	
153	
145	
150	
154	
145	
157	
146	
165	
166	
143	
158	
164	
147	
164	
154	
162	
141	
148	
154	
160	
154	
127	
161	
180	
138	
143	
128	
154	
137	
156	
138	
136	
140	
141	
158	
149	
137	
136	
145	
146	
151	
156	
151	
135	
148	
175	
132	
156	
152	
151	
143	
161	
136	
148	
137	
168	
166	
156	
151	
171	
142	
180	
132	
175	
147	
138	
129	
129	
135	
135	
146	
127	
136	
143	
149	
149	
150	
153	
149	
148	
137	
152	
145	
132	
135	
149	
132	
143	
160	
126	
146	
135	
137	
148	
139	
153	
163	
163	
134	
151	
137	
155	
124	
161	
134	
167	
130	
145	
136	
153	
135	
143	
133	
143	
130	
123	
148	
149	
127	
153	
142	
129	
146	
140	
156	
144	
166	
167	
155	
149	
129	
142	
149	
156	
131	
144	
148	
165	
145	
136	
155	
130	
171	
141	
126	
155	
155	
154	
139	
134	
140	
148	
144	
145	
144	
126	
155	
131	
129	
172	
151	
153	
129	
123	
145	
146	
146	
148	
151	
140	
143	
147	
150	
149	
140	
155	
153	
151	
142	
137	
156	
150	
120	
143	
135	
163	
130	
138	
148	
128	
133	
144	
147	
146	
128	
149	
127	
134	
139	
157	
136	
161	
150	
147	
133	
144	
113	
136	
125	
150	
143	
135	
128	
150	
142	
152	
126	
147	
156	
155	
118	
127	
146	
149	
138	
154	
159	
146	
153	
140	
137	
133	
140	
138	
115	
144	
148	
149	
138	
149	
127	
156	
141	
148	
147	
122	
121	
128	
146	
135	
148	
138	
121	
143	
137	
156	
131	
134	
134	
163	
121	
151	
146	
138	
138	
139	
142	
133	
121	
136	
131	
146	
128	
162	
144	
136	
115	
130	
138	
132	
141	
128	
142	
141	
146	
144	
153	
128	
149	
139	
132	
125	
125	
133	
119	
137	
126	
140	
144	
139	
146	
159	
132	
127	
125	
122	
132	
122	
147	
115	
138	
149	
136	
141	
132	
143	
124	
121	
134	
129	
122	
139	
152	
130	
148	
128	
132	
161	
125	
138	
133	
125	
122	
123	
145	
147	
132	
122	
120	
124	
165	
135	
134	
144	
136	
139	
107	
145	
142	
144	
113	
144	
141	
113	
136	
132	
134	
119	
117	
120	
135	
121	
121	
122	
148	
132	
140	
117	
149	
130	
129	
116	
120	
124	
107	
144	
133	
141	
129	
127	
150	
119	
117	
134	
132	
113	
146	
128	
141	
130	
137	
127	
115	
132	
138	
154	
125	
143	
133	
134	
125	
134	
132	
131	
115	
124	
107	
129	
119	
130	
143	
112	
115	
138	
138	
183	
138	
135	
130	
126	
117	
134	
147	
110	
124	
129	
130	
119	
126	
125	
126	
133	
121	
115	
119	
118	
148	
139	
138	
139	
126	
123	
121	
146	
145	
124	
145	
128	
146	
121	
141	
126	
113	
132	
135	
123	
119	
118	
116	
134	
117	
133	
136	
133	
120	
99	
122	
128	
122	
128	
115	
140	
125	
131	
122	
126	
129	
131	
117	
135	
141	
121	
130	
123	
120	
120	
137	
117	
129	
146	
114	
133	
129	
119	
123	
127	
142	
103	
120	
125	
116	
117	
134	
123	
133	
114	
112	
129	
127	
127	
116	
129	
111	
111	
142	
110	
129	
116	
121	
131	
140	
127	
128	
120	
149	
138	
144	
147	
134	
127	
120	
123	
110	
133	
121	
122	
114	
126	
148	
128	
112	
137	
124	
122	
125	
135	
138	
132	
119	
134	
121	
106	
126	
103	
113	
144	
107	
138	
134	
139	
124	
116	
124	
129	
113	
126	
132	
126	
120	
118	
124	
126	
117	
120	
117	
122	
131	
115	
152	
105	
133	
102	
139	
129	
123	
115	
114	
130	
130	
130	
139	
133	
128	
126	
110	
107	
119	
119	
120	
104	
149	
107	
124	
134	
119	
124	
113	
125	
132	
107	
145	
129	
110	
129	
91	
101	
129	
114	
124	
139	
125	
115	
119	
115	
147	
112	
120	
130	
115	
136	
119	
122	
110	
120	
114	
126	
114	
120	
143	
112	
124	
121	
128	
129	
111	
112	
122	
96	
123	
103	
113	
128	
134	
121	
116	
136	
137	
132	
123	
139	
107	
135	
122	
99	
123	
133	
134	
142	
114	
122	
119	
118	
103	
121	
118	
104	
120	
140	
129	
137	
131	
134	
125	
124	
118	
105	
112	
115	
117	
100	
145	
120	
125	
134	
117	
127	
110	
118	
116	
126	
119	
114	
146	
122	
133	
124	
144	
118	
105	
122	
108	
120	
117	
114	
130	
100	
119	
99	
125	
124	
114	
135	
123	
119	
119	
128	
118	
120	
114	
121	
129	
122	
111	
112	
147	
126	
99	
100	
112	
128	
127	
114	
118	
124	
121	
116	
121	
110	
138	
145	
137	
104	
112	
114	
112	
106	
113	
110	
113	
113	
117	
122	
108	
116	
120	
135	
104	
111	
128	
118	
116	
113	
112	
116	
119	
96	
97	
125	
107	
119	
109	
108	
128	
113	
116	
128	
122	
107	
114	
112	
119	
107	
140	
126	
107	
106	
121	
123	
107	
109	
105	
118	
115	
99	
115	
102	
110	
122	
117	
114	
129	
118	
108	
96	
123	
122	
117	
102	
116	
118	
117	
110	
117	
125	
115	
85	
123	
130	
110	
111	
113	
116	
98	
126	
110	
112	
116	
122	
123	
124	
113	
118	
134	
116	
133	
101	
111	
128	
96	
112	
112	
106	
122	
119	
105	
114	
126	
111	
120	
112	
113	
104	
117	
127	
104	
104	
116	
109	
89	
108	
91	
124	
121	
105	
99	
106	
128	
100	
114	
118	
90	
122	
96	
123	
116	
115	
118	
120	
109	
108	
113	
112	
102	
104	
121	
103	
110	
107	
114	
116	
108	
117	
119	
131	
107	
101	
114	
101	
116	
116	
98	
118	
103	
125	
93	
83	
120	
105	
141	
106	
114	
116	
117	
102	
108	
122	
130	
103	
119	
105	
125	
120	
113	
121	
92	
106	
108	
105	
95	
123	
120	
106	
101	
94	
115	
101	
97	
73	
115	
106	
101	
113	
114	
119	
114	
96	
107	
99	
119	
96	
85	
101	
98	
102	
119	
114	
135	
125	
122	
115	
118	
98	
98	
109	
122	
112	
100	
126	
123	
91	
127	
110	
122	
111	
103	
104	
114	
125	
113	
105	
105	
114	
107	
95	
121	
104	
115	
100	
101	
99	
113	
120	
118	
109	
107	
95	
95	
112	
105	
112	
101	
81	
102	
100	
120	
100	
118	
99	
93	
100	
104	
114	
99	
105	
109	
95	
108	
114	
100	
94	
113	
110	
114	
110	
94	
90	
132	
103	
100	
104	
91	
104	
128	
104	
115	
108	
126	
118	
106	
114	
100	
106	
125	
109	
112	
105	
128	
109	
96	
97	
96	
109	
107	
100	
113	
112	
121	
102	
113	
88	
89	
106	
97	
92	
110	
102	
103	
104	
102	
130	
106	
82	
112	
113	
112	
93	
113	
122	
98	
115	
115	
101	
91	
116	
123	
107	
107	
110	
120	
116	
89	
99	
98	
101	
104	
98	
107	
95	
105	
98	
109	
123	
109	
108	
110	
123	
118	
108	
108	
108	
113	
107	
104	
106	
83	
117	
121	
95	
94	
94	
95	
117	
106	
115	
109	
105	
116	
119	
105	
108	
110	
114	
95	
98	
114	
89	
106	
101	
109	
99	
109	
107	
95	
123	
106	
101	
102	
106	
90	
104	
113	
90	
84	
128	
104	
105	
110	
103	
103	
91	
112	
99	
102	
95	
106	
115	
99	
105	
108	
119	
110	
109	
100	
98	
82	
95	
96	
95	
111	
121	
113	
96	
99	
97	
112	
116	
112	
113	
94	
98	
131	
87	
107	
92	
121	
97	
97	
98	
100	
107	
104	
102	
105	
105	
103	
108	
105	
115	
103	
104	
102	
113	
111	
97	
108	
116	
101	
85	
100	
101	
121	
106	
104	
95	
87	
92	
94	
118	
90	
107	
107	
103	
126	
90	
115	
104	
107	
86	
105	
122	
99	
93	
107	
97	
111	
112	
105	
93	
100	
113	
93	
118	
88	
102	
107	
106	
93	
91	
102	
113	
98	
92	
87	
109	
105	
110	
97	
94	
125	
83	
84	
99	
102	
107	
112	
111	
91	
112	
95	
110	
94	
101	
99	
93	
108	
97	
107	
110	
104	
126	
104	
108	
94	
97	
93	
99	
112	
107	
107	
96	
91	
101	
91	
104	
90	
101	
101	
93	
92	
93	
93	
94	
105	
93	
90	
115	
84	
94	
118	
90	
88	
90	
98	
82	
86	
115	
108	
96	
122	
97	
112	
102	
104	
101	
107	
89	
106	
116	
82	
101	
108	
101	
95	
107	
90	
97	
101	
98	
91	
102	
84	
100	
94	
108	
100	
96	
92	
103	
79	
99	
97	
102	
100	
106	
77	
106	
98	
94	
85	
82	
124	
100	
81	
100	
93	
88	
95	
89	
104	
103	
97	
100	
107	
100	
105	
105	
87	
72	
97	
77	
72	
84	
102	
72	
92	
91	
80	
104	
99	
92	
77	
101	
101	
89	
97	
95	
91	
83	
90	
97	
119	
93	
85	
101	
92	
85	
112	
103	
89	
89	
87	
76	
92	
96	
103	
79	
93	
80	
90	
86	
83	
93	
99	
112	
103	
99	
100	
91	
99	
82	
107	
107	
83	
100	
83	
103	
111	
94	
93	
102	
91	
109	
111	
77	
93	
97	
91	
93	
116	
102	
113	
86	
105	
90	
95	
89	
96	
84	
93	
100	
80	
96	
101	
105	
84	
107	
99	
86	
97	
83	
96	
94	
86	
90	
80	
88	
88	
96	
86	
111	
105	
91	
87	
78	
94	
104	
116	
93	
101	
95	
80	
86	
74	
100	
111	
100	
96	
86	
83	
104	
82	
82	
100	
80	
124	
117	
91	
81	
71	
87	
89	
89	
90	
85	
81	
83	
76	
101	
97	
88	
85	
83	
82	
100	
90	
100	
100	
77	
95	
86	
79	
78	
86	
95	
91	
85	
92	
94	
87	
105	
97	
76	
91	
86	
89	
108	
85	
91	
95	
101	
93	
94	
91	
67	
97	
92	
93	
91	
73	
98	
76	
99	
95	
87	
101	
91	
99	
89	
92	
103	
85	
90	
89	
76	
90	
82	
89	
114	
88	
96	
94	
86	
92	
96	
83	
79	
76	
81	
90	
86	
90	
104	
79	
96	
82	
88	
103	
99	
102	
80	
96	
97	
89	
93	
97	
86	
99	
86	
92	
80	
74	
99	
94	
73	
83	
98	
96	
95	
84	
78	
76	
85	
108	
88	
98	
78	
110	
78	
95	
78	
96	
77	
91	
87	
100	
82	
85	
99	
82	
95	
89	
98	
78	
85	
109	
89	
91	
87	
96	
86	
93	
89	
95	
91	
92	
94	
97	
87	
96	
100	
88	
68	
108	
109	
100	
89	
85	
108	
79	
108	
105	
81	
89	
98	
81	
86	
94	
82	
88	
85	
93	
111	
98	
97	
72	
98	
82	
96	
91	
74	
84	
76	
80	
102	
93	
77	
97	
82	
79	
89	
91	
94	
93	
98	
90	
84	
74	
86	
85	
90	
84	
77	
103	
76	
83	
65	
94	
87	
94	
102	
82	
79	
88	
97	
69	
80	
73	
97	
89	
80	
76	
96	
78	
102	
75	
97	
71	
85	
79	
83	
85	
82	
98	
97	
84	
90	
83	
76	
89	
83	
93	
81	
79	
86	
81	
70	
87	
88	
91	
85	
98	
80	
95	
70	
87	
85	
89	
77	
79	
89	
85	
71	
73	
83	
98	
95	
99	
96	
79	
87	
96	
84	
81	
80	
68	
81	
79	
89	
89	
83	
90	
89	
81	
75	
78	
90	
80	
75	
116	
85	
87	
94	
79	
92	
80	
87	
72	
91	
83	
76	
81	
85	
87	
87	
86	
78	
88	
88	
88	
93	
89	
88	
104	
82	
100	
90	
86	
80	
91	
96	
71	
91	
79	
84	
92	
78	
81	
81	
83	
74	
77	
93	
74	
86	
93	
80	
78	
91	
91	
74	
85	
74	
89	
83	
88	
91	
87	
92	
73	
69	
84	
78	
82	
87	
102	
104	
81	
72	
83	
78	
84	
77	
89	
76	
73	
70	
95	
82	
90	
65	
98	
69	
86	
79	
98	
77	
78	
71	
78	
71	
97	
82	
80	
84	
89	
82	
97	
71	
81	
83	
84	
93	
80	
60	
79	
72	
86	
98	
71	
91	
70	
95	
69	
82	
64	
82	
72	
85	
75	
89	
84	
83	
79	
66	
83	
96	
68	
87	
95	
81	
84	
86	
77	
87	
85	
79	
92	
95	
80	
86	
84	
75	
75	
84	
77	
74	
89	
65	
74	
74	
81	
75	
68	
70	
71	
84	
64	
72	
77	
81	
89	
67	
67	
72	
85	
80	
83	
80	
80	
77	
86	
83	
91	
78	
84	
84	
84	
86	
70	
70	
97	
87	
94	
80	
81	
74	
77	
78	
75	
80	
108	
91	
96	
69	
75	
80	
85	
77	
107	
67	
85	
73	
81	
65	
89	
69	
84	
86	
63	
64	
90	
73	
93	
108	
69	
76	
75	
71	
91	
90	
80	
81	
69	
84	
85	
86	
63	
87	
81	
81	
80	
87	
101	
85	
75	
61	
79	
92	
80	
92	
81	
92	
100	
79	
76	
75	
74	
85	
73	
76	
77	
85	
70	
95	
75	
87	
70	
80	
87	
64	
92	
80	
85	
77	
93	
76	
87	
73	
80	
76	
83	
77	
73	
68	
73	
73	
84	
92	
82	
73	
65	
79	
75	
79	
80	
93	
74	
65	
86	
78	
83	
77	
81	
70	
72	
84	
66	
71	
83	
72	
86	
80	
70	
69	
69	
74	
76	
66	
84	
78	
76	
66	
84	
76	
78	
77	
72	
83	
73	
64	
79	
70	
75	
73	
72	
77	
75	
79	
79	
72	
81	
71	
82	
91	
85	
76	
63	
63	
85	
81	
80	
87	
69	
78	
71	
86	
72	
68	
83	
82	
67	
87	
81	
61	
70	
71	
80	
83	
67	
69	
67	
80	
89	
72	
80	
81	
85	
82	
85	
78	
77	
94	
65	
63	
74	
65	
74	
69	
84	
78	
92	
66	
76	
71	
90	
82	
72	
70	
81	
85	
82	
75	
72	
74	
72	
83	
72	
73	
79	
100	
87	
73	
85	
81	
76	
97	
70	
70	
70	
77	
70	
72	
76	
75	
72	
82	
73	
70	
77	
68	
87	
68	
76	
100	
79	
73	
76	
66	
61	
80	
61	
73	
75	
69	
73	
63	
87	
74	
75	
70	
76	
97	
74	
70	
81	
73	
66	
76	
77	
82	
72	
67	
53	
77	
63	
82	
78	
70	
60	
66	
81	
77	
85	
81	
68	
73	
73	
72	
91	
74	
61	
78	
76	
75	
69	
75	
93	
76	
73	
68	
65	
92	
66	
71	
63	
67	
76	
82	
62	
77	
62	
71	
75	
74	
73	
87	
82	
62	
76	
65	
81	
65	
80	
75	
77	
80	
60	
62	
63	
75	
66	
90	
83	
65	
74	
77	
73	
72	
69	
88	
80	
74	
65	
74	
76	
87	
79	
67	
87	
71	
71	
75	
67	
73	
79	
61	
67	
54	
73	
58	
64	
65	
58	
63	
65	
82	
74	
71	
66	
64	
76	
81	
67	
73	
62	
77	
69	
67	
81	
60	
69	
66	
70	
70	
78	
76	
81	
65	
64	
73	
70	
72	
53	
71	
68	
62	
85	
87	
82	
55	
66	
75	
78	
74	
78	
66	
64	
74	
73	
66	
55	
77	
58	
70	
65	
83	
72	
56	
71	
90	
81	
77	
79	
66	
82	
69	
75	
66	
87	
77	
71	
78	
70	
76	
65	
78	
92	
77	
66	
69	
70	
70	
56	
70	
52	
76	
82	
71	
66	
70	
75	
64	
63	
82	
68	
72	
54	
65	
54	
79	
72	
62	
67	
73	
83	
68	
65	
68	
64	
62	
54	
72	
69	
80	
75	
69	
60	
77	
68	
66	
52	
61	
70	
69	
68	
72	
78	
66	
70	
48	
65	
72	
67	
58	
66	
63	
72	
64	
63	
69	
67	
69	
90	
60	
73	
59	
76	
75	
66	
63	
64	
69	
73	
78	
65	
73	
74	
71	
57	
57	
74	
76	
71	
54	
75	
56	
68	
71	
60	
72	
65	
67	
66	
63	
70	
75	
63	
61	
76	
72	
89	
70	
69	
72	
74	
79	
58	
57	
77	
73	
79	
73	
78	
55	
77	
78	
72	
78	
70	
51	
58	
72	
71	
58	
77	
70	
68	
67	
63	
87	
83	
78	
66	
47	
61	
75	
62	
73	
68	
61	
64	
60	
57	
80	
75	
55	
49	
59	
80	
51	
70	
73	
60	
67	
64	
74	
78	
61	
62	
53	
65	
60	
72	
66	
67	
67	
66	
72	
59	
76	
61	
66	
70	
57	
68	
85	
65	
81	
83	
68	
74	
65	
75	
64	
58	
64	
63	
81	
70	
84	
67	
63	
66	
68	
74	
69	
43	
51	
76	
76	
70	
71	
71	
70	
57	
80	
72	
70	
79	
51	
58	
56	
70	
73	
68	
62	
67	
55	
75	
67	
65	
64	
56	
78	
71	
84	
68	
53	
57	
67	
76	
59	
65	
59	
64	
51	
62	
62	
70	
62	
56	
77	
68	
65	
69	
51	
61	
63	
70	
67	
55	
63	
77	
67	
56	
77	
77	
69	
51	
65	
86	
66	
68	
65	
48	
67	
81	
58	
59	
60	
86	
57	
70	
68	
78	
76	
75	
61	
63	
66	
60	
54	
61	
69	
71	
74	
62	
64	
65	
79	
59	
64	
73	
68	
64	
74	
65	
58	
76	
82	
79	
59	
55	
75	
50	
51	
59	
60	
78	
62	
61	
56	
74	
60	
65	
61	
60	
61	
74	
55	
67	
58	
59	
77	
60	
63	
63	
65	
64	
69	
63	
73	
59	
75	
65	
66	
60	
84	
74	
71	
54	
72	
81	
54	
67	
72	
67	
57	
73	
65	
69	
50	
62	
61	
62	
74	
63	
64	
63	
73	
74	
56	
65	
62	
64	
82	
56	
69	
68	
77	
72	
70	
61	
72	
44	
63	
71	
65	
41	
68	
58	
65	
56	
74	
53	
63	
60	
61	
51	
50	
64	
53	
68	
63	
68	
74	
71	
80	
64	
67	
54	
67	
51	
54	
41	
63	
54	
55	
59	
73	
63	
60	
79	
51	
69	
62	
47	
52	
72	
56	
64	
65	
49	
58	
76	
59	
57	
49	
61	
74	
57	
50	
54	
54	
55	
54	
65	
52	
58	
56	
55	
52	
60	
60	
62	
73	
55	
80	
73	
57	
53	
50	
56	
58	
61	
67	
59	
75	
46	
58	
51	
72	
53	
57	
61	
64	
65	
67	
67	
52	
61	
56	
60	
68	
57	
51	
62	
63	
78	
56	
60	
50	
55	
75	
56	
73	
61	
46	
66	
51	
80	
65	
73	
59	
63	
69	
69	
64	
60	
56	
62	
54	
69	
76	
54	
68	
60	
53	
46	
58	
68	
56	
62	
61	
63	
56	
56	
69	
64	
68	
66	
53	
62	
69	
76	
72	
60	
54	
67	
54	
74	
63	
62	
49	
60	
68	
70	
45	
48	
67	
54	
50	
62	
50	
65	
54	
57	
64	
65	
56	
58	
72	
62	
65	
62	
61	
53	
49	
58	
58	
69	
62	
66	
64	
56	
50	
61	
72	
66	
59	
57	
47	
58	
42	
47	
55	
62	
62	
62	
64	
54	
50	
55	
63	
61	
60	
54	
63	
52	
55	
52	
63	
58	
69	
52	
63	
59	
51	
58	
63	
54	
60	
61	
65	
43	
48	
69	
61	
53	
71	
55	
65	
49	
57	
59	
48	
53	
46	
52	
56	
63	
44	
56	
52	
62	
71	
61	
56	
47	
60	
57	
47	
57	
59	
53	
47	
45	
73	
62	
52	
52	
59	
61	
59	
48	
69	
60	
54	
69	
59	
66	
50	
54	
50	
56	
57	
51	
54	
60	
59	
48	
65	
58	
66	
53	
53	
61	
53	
57	
57	
65	
58	
51	
56	
48	
66	
65	
54	
52	
62	
45	
56	
65	
53	
67	
68	
58	
46	
57	
54	
47	
61	
54	
67	
62	
68	
55	
61	
68	
47	
56	
58	
53	
51	
54	
63	
54	
67	
57	
54	
60	
61	
53	
59	
52	
49	
57	
50	
65	
62	
56	
50	
55	
58	
56	
65	
60	
58	
67	
59	
46	
50	
58	
52	
56	
50	
57	
72	
60	
56	
51	
55	
60	
53	
55	
60	
63	
60	
57	
51	
50	
50	
65	
57	
61	
68	
51	
43	
54	
60	
65	
60	
56	
50	
53	
51	
55	
60	
55	
62	
72	
77	
50	
54	
57	
66	
61	
57	
48	
66	
52	
56	
39	
59	
52	
63	
56	
58	
46	
45	
59	
47	
75	
50	
60	
66	
54	
69	
41	
52	
58	
49	
69	
54	
48	
53	
61	
61	
50	
61	
61	
50	
59	
52	
49	
38	
63	
63	
62	
60	
58	
68	
67	
68	
53	
61	
57	
54	
62	
57	
68	
60	
61	
50	
67	
64	
48	
53	
67	
56	
69	
66	
44	
68	
57	
53	
44	
56	
46	
46	
62	
59	
51	
62	
58	
55	
54	
63	
58	
48	
71	
59	
74	
60	
61	
45	
70	
48	
64	
71	
62	
47	
73	
59	
60	
80	
71	
46	
61	
56	
54	
51	
52	
65	
54	
38	
60	
52	
50	
63	
58	
58	
59	
58	
49	
57	
46	
41	
50	
62	
57	
50	
45	
53	
52	
49	
62	
56	
41	
43	
46	
49	
63	
56	
54	
57	
57	
50	
67	
58	
62	
40	
60	
46	
52	
66	
54	
46	
44	
67	
60	
56	
55	
68	
55	
42	
55	
57	
60	
53	
54	
64	
63	
65	
44	
60	
55	
66	
37	
53	
44	
58	
51	
42	
54	
47	
72	
50	
53	
48	
46	
56	
53	
43	
51	
57	
62	
64	
58	
48	
61	
48	
55	
56	
56	
51	
47	
54	
67	
56	
51	
43	
52	
52	
63	
55	
60	
33	
50	
67	
44	
59	
55	
50	
54	
57	
46	
64	
54	
49	
58	
67	
50	
56	
58	
49	
53	
64	
56	
57	
59	
62	
54	
54	
59	
44	
45	
58	
71	
47	
43	
48	
46	
49	
38	
42	
44	
58	
54	
43	
51	
62	
38	
55	
66	
43	
52	
61	
60	
62	
59	
49	
67	
62	
65	
61	
41	
50	
65	
44	
64	
42	
49	
56	
64	
38	
47	
46	
50	
46	
54	
45	
53	
56	
73	
66	
46	
54	
47	
54	
51	
57	
52	
67	
46	
49	
61	
59	
47	
56	
46	
49	
57	
58	
63	
35	
46	
67	
55	
57	
43	
47	
69	
58	
61	
52	
48	
37	
41	
62	
59	
52	
54	
53	
47	
56	
44	
40	
58	
51	
72	
43	
54	
45	
49	
36	
46	
50	
35	
44	
48	
58	
44	
53	
44	
54	
44	
65	
43	
49	
61	
58	
57	
44	
54	
59	
42	
44	
49	
51	
58	
56	
57	
65	
50	
69	
59	
51	
44	
59	
46	
44	
37	
47	
55	
55	
52	
49	
44	
49	
54	
57	
44	
53	
49	
59	
39	
50	
61	
39	
49	
51	
49	
60	
56	
50	
52	
63	
54	
52	
55	
53	
53	
51	
43	
59	
43	
57	
54	
57	
63	
53	
54	
54	
60	
59	
44	
60	
49	
38	
60	
49	
44	
46	
51	
46	
48	
50	
53	
61	
47	
55	
60	
48	
47	
66	
47	
47	
46	
58	
38	
61	
57	
50	
52	
55	
51	
48	
51	
60	
50	
48	
42	
58	
59	
48	
42	
45	
62	
54	
53	
46	
41	
62	
42	
58	
61	
48	
44	
53	
56	
33	
42	
51	
56	
44	
58	
57	
46	
53	
56	
59	
59	
56	
44	
50	
49	
38	
51	
47	
61	
58	
57	
52	
34	
40	
35	
52	
46	
45	
38	
53	
53	
41	
43	
57	
36	
51	
60	
48	
51	
53	
52	
49	
54	
52	
45	
52	
53	
43	
50	
46	
49	
40	
43	
56	
57	
47	
59	
69	
43	
58	
46	
41	
51	
54	
57	
57	
49	
54	
50	
48	
41	
55	
62	
51	
47	
53	
47	
51	
43	
42	
45	
54	
61	
59	
49	
50	
40	
62	
57	
45	
46	
34	
64	
55	
41	
46	
41	
56	
38	
38	
46	
39	
54	
57	
52	
46	
39	
44	
44	
32	
38	
58	
61	
63	
55	
40	
54	
54	
56	
44	
36	
47	
41	
44	
63	
49	
45	
53	
56	
46	
55	
50	
51	
44	
57	
55	
63	
53	
51	
46	
46	
42	
38	
44	
53	
42	
39	
47	
41	
46	
42	
53	
54	
55	
40	
53	
43	
43	
43	
52	
41	
49	
52	
47	
45	
46	
49	
44	
34	
32	
47	
47	
53	
62	
53	
38	
46	
37	
47	
39	
46	
55	
50	
57	
52	
40	
46	
50	
42	
45	
40	
38	
44	
50	
46	
51	
47	
44	
51	
49	
49	
50	
44	
39	
58	
48	
49	
49	
44	
49	
60	
43	
39	
61	
64	
50	
43	
69	
46	
56	
59	
47	
41	
40	
47	
44	
40	
51	
45	
59	
45	
55	
41	
62	
50	
46	
46	
47	
44	
58	
54	
49	
41	
47	
52	
44	
50	
59	
45	
56	
56	
44	
40	
44	
43	
39	
47	
49	
67	
45	
40	
35	
47	
37	
52	
50	
49	
48	
42	
53	
34	
50	
47	
45	
43	
25	
44	
45	
48	
58	
47	
37	
44	
42	
58	
40	
41	
37	
53	
52	
60	
39	
36	
46	
46	
41	
43	
46	
44	
55	
49	
46	
45	
37	
46	
60	
43	
43	
47	
49	
45	
44	
55	
49	
41	
47	
41	
46	
40	
41	
40	
36	
42	
43	
48	
39	
40	
39	
43	
54	
50	
47	
39	
41	
37	
47	
45	
41	
37	
46	
34	
46	
46	
54	
53	
54	
38	
51	
54	
37	
49	
52	
47	
37	
57	
55	
53	
44	
59	
44	
55	
54	
45	
28	
46	
41	
57	
43	
49	
45	
45	
45	
52	
43	
36	
40	
48	
51	
46	
61	
35	
51	
37	
37	
47	
45	
46	
49	
56	
35	
40	
46	
47	
50	
56	
40	
53	
49	
31	
57	
36	
41	
41	
47	
50	
34	
48	
50	
60	
47	
44	
41	
39	
48	
41	
40	
40	
53	
38	
25	
61	
36	
32	
43	
53	
39	
50	
51	
47	
34	
46	
44	
43	
42	
46	
56	
53	
50	
42	
34	
40	
54	
26	
39	
47	
44	
36	
44	
58	
30	
37	
38	
44	
49	
44	
43	
54	
38	
43	
52	
40	
48	
47	
36	
29	
45	
46	
44	
49	
32	
41	
52	
43	
44	
47	
41	
58	
51	
42	
42	
55	
39	
51	
37	
32	
52	
51	
48	
43	
42	
46	
40	
37	
46	
38	
44	
38	
37	
44	
46	
41	
37	
39	
52	
49	
44	
47	
42	
36	
42	
33	
41	
40	
40	
37	
39	
56	
50	
43	
32	
35	
49	
47	
50	
51	
38	
42	
44	
52	
50	
40	
39	
51	
46	
43	
31	
46	
50	
41	
35	
47	
48	
38	
36	
38	
39	
48	
52	
40	
30	
44	
46	
54	
44	
43	
31	
44	
42	
45	
35	
48	
43	
43	
46	
47	
45	
46	
38	
55	
34	
42	
39	
44	
41	
45	
42	
42	
37	
47	
39	
54	
42	
39	
40	
43	
45	
46	
50	
57	
54	
43	
39	
46	
48	
26	
36	
48	
35	
46	
48	
46	
38	
44	
41	
42	
44	
45	
42	
40	
45	
41	
42	
39	
44	
33	
37	
48	
46	
41	
39	
35	
43	
48	
46	
45	
35	
39	
41	
33	
42	
46	
50	
40	
46	
34	
50	
38	
39	
44	
35	
35	
39	
40	
56	
49	
44	
41	
41	
41	
48	
39	
53	
52	
46	
42	
34	
51	
38	
32	
40	
36	
44	
40	
58	
37	
41	
42	
32	
42	
39	
50	
38	
54	
37	
35	
51	
44	
41	
29	
43	
39	
41	
49	
40	
37	
36	
41	
47	
42	
40	
35	
53	
44	
32	
43	
25	
46	
49	
32	
58	
35	
37	
45	
42	
53	
43	
35	
41	
48	
48	
56	
44	
38	
50	
54	
47	
41	
47	
39	
39	
46	
40	
54	
34	
43	
42	
43	
42	
51	
47	
40	
36	
40	
40	
42	
39	
35	
38	
50	
44	
32	
40	
45	
39	
31	
37	
34	
50	
35	
52	
26	
42	
34	
49	
52	
48	
28	
52	
53	
34	
48	
42	
36	
53	
28	
40	
33	
42	
37	
41	
44	
32	
41	
47	
35	
46	
41	
46	
38	
39	
34	
50	
46	
35	
30	
48	
43	
40	
44	
47	
41	
42	
52	
41	
46	
36	
34	
37	
40	
46	
35	
38	
41	
40	
43	
42	
36	
39	
36	
28	
30	
33	
46	
39	
48	
36	
45	
43	
53	
38	
49	
45	
37	
49	
32	
44	
35	
40	
32	
41	
36	
46	
41	
46	
42	
43	
43	
42	
37	
55	
45	
37	
34	
42	
42	
41	
36	
47	
37	
41	
42	
33	
42	
44	
42	
54	
28	
50	
31	
52	
45	
38	
31	
43	
34	
43	
38	
45	
45	
43	
31	
39	
33	
38	
33	
38	
29	
36	
36	
30	
44	
51	
48	
33	
40	
51	
52	
53	
41	
58	
31	
38	
35	
45	
43	
46	
42	
36	
53	
33	
39	
26	
45	
40	
47	
43	
44	
36	
29	
42	
29	
42	
33	
39	
41	
42	
36	
34	
31	
34	
49	
55	
48	
45	
34	
30	
40	
45	
51	
32	
38	
33	
52	
36	
37	
42	
40	
37	
38	
30	
32	
33	
38	
43	
34	
34	
36	
32	
35	
35	
40	
43	
35	
42	
39	
44	
42	
40	
42	
34	
39	
34	
45	
40	
44	
37	
39	
45	
32	
31	
31	
33	
34	
46	
40	
29	
26	
36	
47	
40	
42	
44	
27	
38	
42	
29	
39	
35	
30	
40	
37	
38	
32	
37	
32	
41	
38	
25	
36	
48	
38	
37	
43	
48	
36	
38	
32	
38	
37	
43	
37	
44	
39	
33	
32	
27	
45	
31	
53	
38	
39	
30	
30	
35	
52	
47	
41	
39	
37	
37	
41	
36	
42	
28	
37	
38	
38	
42	
30	
30	
31	
55	
39	
38	
36	
36	
27	
49	
33	
39	
34	
31	
33	
42	
31	
30	
32	
31	
33	
38	
41	
40	
43	
38	
39	
33	
43	
30	
38	
32	
43	
31	
30	
45	
37	
39	
27	
33	
44	
42	
46	
30	
45	
36	
39	
39	
47	
32	
38	
41	
46	
37	
47	
33	
38	
46	
37	
35	
36	
43	
35	
31	
37	
35	
46	
37	
30	
38	
35	
41	
27	
32	
46	
36	
36	
51	
42	
34	
44	
43	
42	
41	
35	
48	
25	
39	
42	
49	
32	
35	
42	
33	
27	
36	
30	
33	
36	
44	
46	
32	
34	
32	
41	
36	
28	
20	
28	
37	
29	
33	
38	
40	
40	
34	
30	
33	
35	
44	
46	
38	
44	
38	
35	
36	
34	
27	
36	
36	
36	
26	
35	
40	
47	
28	
42	
38	
43	
54	
36	
33	
38	
47	
30	
43	
44	
36	
40	
44	
31	
24	
36	
34	
32	
41	
40	
31	
32	
39	
31	
28	
46	
26	
32	
31	
35	
35	
33	
39	
42	
42	
42	
39	
42	
37	
36	
36	
53	
43	
37	
36	
36	
35	
34	
35	
33	
35	
36	
40	
39	
40	
29	
38	
45	
36	
28	
33	
39	
38	
40	
48	
36	
39	
32	
34	
30	
42	
48	
44	
37	
43	
38	
35	
42	
31	
46	
36	
35	
35	
35	
49	
39	
33	
37	
36	
31	
47	
37	
33	
35	
32	
34	
48	
39	
30	
41	
46	
34	
43	
43	
36	
37	
38	
44	
30	
41	
28	
28	
35	
35	
32	
40	
31	
26	
28	
33	
34	
31	
27	
43	
34	
41	
33	
33	
30	
35	
40	
35	
36	
33	
34	
29	
36	
39	
40	
33	
48	
39	
42	
40	
40	
55	
35	
30	
41	
45	
33	
32	
36	
36	
38	
42	
44	
36	
50	
33	
32	
29	
34	
39	
37	
38	
38	
46	
25	
35	
32	
34	
34	
22	
28	
33	
34	
32	
32	
34	
39	
33	
39	
33	
31	
33	
34	
41	
42	
37	
26	
27	
45	
38	
42	
22	
36	
31	
31	
39	
29	
26	
34	
32	
46	
35	
29	
36	
27	
37	
42	
30	
39	
39	
25	
36	
37	
38	
37	
37	
33	
24	
35	
34	
38	
39	
41	
38	
37	
31	
31	
37	
43	
32	
27	
39	
29	
49	
27	
32	
37	
33	
38	
28	
32	
35	
39	
30	
32	
39	
39	
29	
41	
30	
30	
30	
30	
39	
33	
39	
41	
40	
38	
35	
39	
31	
28	
28	
33	
40	
30	
28	
32	
36	
40	
38	
43	
38	
40	
37	
36	
30	
26	
33	
37	
40	
38	
39	
44	
22	
36	
33	
38	
30	
40	
34	
31	
38	
35	
33	
31	
24	
37	
39	
31	
31	
24	
36	
24	
32	
34	
37	
38	
40	
30	
36	
35	
31	
30	
35	
31	
34	
30	
36	
39	
32	
26	
33	
34	
40	
38	
45	
37	
32	
41	
38	
26	
40	
26	
36	
34	
31	
34	
31	
31	
37	
27	
32	
44	
39	
25	
36	
34	
27	
26	
34	
32	
32	
27	
25	
27	
33	
26	
32	
40	
30	
42	
43	
32	
33	
39	
29	
28	
32	
29	
34	
34	
41	
35	
28	
29	
25	
31	
33	
35	
29	
42	
45	
29	
39	
30	
26	
30	
39	
32	
39	
30	
30	
31	
30	
29	
30	
36	
29	
29	
31	
45	
30	
40	
35	
36	
37	
34	
32	
34	
29	
32	
28	
27	
35	
40	
37	
33	
30	
19	
25	
30	
40	
27	
31	
37	
28	
28	
26	
32	
40	
36	
29	
25	
34	
26	
31	
48	
38	
26	
22	
34	
29	
33	
25	
31	
17	
42	
21	
28	
37	
28	
36	
33	
32	
45	
35	
39	
40	
34	
27	
27	
28	
39	
38	
34	
24	
41	
31	
28	
32	
37	
38	
34	
32	
33	
41	
30	
36	
23	
28	
38	
28	
34	
34	
28	
27	
36	
26	
36	
26	
36	
31	
23	
29	
30	
35	
36	
34	
37	
38	
34	
30	
27	
26	
42	
34	
27	
43	
31	
24	
38	
25	
32	
38	
26	
27	
40	
29	
29	
32	
33	
29	
26	
30	
29	
42	
26	
35	
33	
22	
20	
28	
39	
38	
35	
31	
33	
27	
34	
24	
34	
38	
26	
32	
36	
26	
39	
24	
35	
32	
39	
41	
31	
37	
26	
20	
38	
26	
26	
28	
36	
39	
27	
37	
32	
35	
32	
34	
33	
33	
34	
33	
28	
46	
24	
28	
37	
30	
33	
22	
29	
37	
36	
33	
35	
37	
26	
34	
32	
27	
31	
45	
21	
25	
30	
31	
42	
35	
24	
28	
31	
19	
22	
29	
24	
40	
28	
28	
30	
28	
23	
27	
29	
26	
18	
33	
34	
31	
22	
22	
35	
33	
38	
25	
20	
26	
29	
45	
26	
34	
22	
37	
39	
37	
24	
36	
28	
39	
28	
26	
30	
39	
29	
26	
23	
35	
33	
30	
37	
19	
32	
31	
36	
32	
36	
38	
35	
26	
28	
28	
28	
38	
22	
36	
33	
28	
33	
31	
35	
41	
27	
32	
31	
36	
31	
24	
40	
34	
31	
30	
21	
35	
25	
26	
35	
36	
43	
39	
37	
29	
31	
32	
26	
29	
40	
24	
30	
34	
26	
24	
27	
25	
36	
29	
36	
26	
36	
30	
36	
38	
32	
37	
20	
27	
31	
35	
22	
28	
25	
33	
38	
27	
30	
37	
32	
23	
25	
27	
24	
35	
32	
34	
35	
31	
41	
33	
26	
37	
35	
37	
27	
28	
32	
30	
24	
31	
34	
33	
24	
32	
31	
48	
27	
25	
29	
19	
29	
29	
29	
34	
33	
30	
36	
29	
32	
31	
26	
31	
34	
31	
36	
31	
36	
26	
33	
37	
32	
18	
32	
30	
37	
38	
35	
26	
32	
27	
28	
29	
34	
34	
33	
26	
34	
26	
28	
32	
29	
37	
30	
30	
36	
25	
31	
25	
29	
35	
38	
32	
31	
30	
27	
34	
29	
33	
24	
20	
21	
36	
24	
34	
29	
34	
26	
31	
38	
30	
34	
29	
22	
36	
33	
26	
20	
29	
31	
40	
23	
39	
16	
35	
28	
31	
34	
31	
29	
25	
23	
33	
34	
33	
30	
27	
26	
30	
32	
32	
25	
37	
32	
25	
27	
34	
40	
34	
31	
19	
30	
32	
25	
28	
26	
33	
36	
24	
25	
27	
28	
28	
24	
36	
30	
32	
39	
35	
20	
31	
35	
36	
28	
22	
24	
36	
28	
25	
36	
20	
23	
33	
37	
26	
27	
33	
37	
16	
30	
18	
27	
23	
27	
26	
39	
28	
21	
31	
20	
28	
23	
32	
24	
24	
35	
33	
27	
34	
23	
28	
35	
26	
21	
21	
34	
35	
43	
20	
21	
40	
29	
34	
31	
27	
25	
23	
34	
21	
32	
32	
29	
25	
27	
21	
28	
30	
32	
40	
28	
22	
33	
20	
35	
25	
41	
34	
18	
30	
29	
31	
31	
41	
34	
36	
30	
35	
19	
29	
31	
28	
27	
34	
30	
29	
26	
25	
29	
30	
30	
24	
32	
29	
30	
27	
29	
45	
31	
36	
21	
31	
20	
37	
28	
29	
33	
26	
30	
31	
30	
30	
33	
27	
26	
38	
27	
22	
19	
24	
23	
34	
21	
25	
28	
22	
29	
27	
20	
25	
28	
36	
27	
29	
31	
18	
26	
25	
30	
32	
24	
37	
24	
35	
22	
29	
24	
31	
27	
18	
29	
19	
32	
38	
35	
34	
33	
31	
21	
24	
24	
38	
35	
24	
31	
27	
24	
28	
22	
34	
24	
21	
24	
31	
22	
30	
31	
33	
28	
26	
24	
30	
33	
35	
29	
26	
26	
24	
28	
23	
27	
25	
19	
26	
30	
23	
27	
22	
32	
25	
27	
30	
28	
29	
25	
26	
31	
28	
24	
39	
33	
27	
23	
22	
36	
24	
36	
19	
30	
28	
31	
23	
35	
31	
22	
34	
26	
34	
26	
32	
22	
30	
35	
35	
26	
30	
31	
20	
39	
24	
24	
38	
28	
25	
28	
26	
28	
26	
19	
29	
21	
29	
25	
22	
20	
19	
23	
29	
25	
39	
23	
32	
26	
20	
18	
21	
32	
27	
29	
35	
28	
23	
29	
31	
19	
29	
20	
23	
25	
