#PicoHarp 300  Histogram Data			03/13/2023 04:34:11 PM
#channels per curve
31250
#display curve no.
0	
#memory block no.
0	
#ns/channel
0.1280	
#counts
0	
0	
0	
0	
0	
1	
1	
0	
0	
0	
0	
1	
4	
2	
1	
1	
1	
0	
0	
1	
1	
0	
1	
0	
0	
1	
1	
1	
0	
1	
0	
1	
0	
0	
2	
2	
1	
0	
1	
0	
0	
0	
1	
0	
1	
2	
0	
1	
0	
1	
1	
1	
2	
0	
1	
1	
0	
0	
0	
0	
2	
0	
0	
0	
0	
0	
0	
1	
0	
1	
0	
0	
2	
0	
1	
1	
0	
1	
0	
0	
0	
1	
2	
0	
1	
0	
0	
1	
1	
1	
1	
1	
2	
0	
2	
0	
0	
0	
1	
0	
0	
1	
0	
1	
0	
1	
2	
0	
1	
1	
0	
2	
0	
0	
0	
0	
1	
2	
0	
0	
0	
1	
0	
0	
0	
0	
0	
0	
2	
0	
2	
0	
1	
0	
0	
0	
1	
1	
0	
1	
2	
1	
3	
1	
0	
1	
2	
0	
0	
0	
0	
2	
0	
1	
1	
1	
1	
0	
0	
0	
1	
2	
0	
2	
1	
2	
1	
1	
1	
1	
0	
0	
1	
0	
2	
0	
0	
0	
0	
1	
0	
0	
0	
0	
1	
1	
0	
0	
0	
0	
1	
0	
0	
3	
2	
0	
2	
0	
0	
2	
0	
0	
0	
0	
0	
1	
2	
1	
0	
0	
1	
0	
3	
0	
0	
0	
1	
1	
1	
1	
0	
0	
2	
1	
1	
0	
0	
0	
1	
0	
1	
0	
0	
0	
0	
1	
3	
7	
10	
7	
15	
13	
20	
32	
41	
76	
82	
121	
142	
173	
158	
193	
183	
210	
212	
222	
190	
223	
205	
204	
236	
244	
239	
231	
250	
217	
213	
219	
210	
226	
213	
243	
233	
209	
219	
186	
212	
201	
217	
220	
225	
216	
214	
198	
226	
211	
200	
197	
220	
195	
188	
222	
208	
229	
238	
215	
187	
188	
209	
215	
208	
174	
223	
191	
200	
216	
178	
209	
206	
209	
199	
205	
191	
197	
180	
221	
181	
195	
213	
211	
221	
189	
175	
184	
194	
190	
189	
195	
181	
210	
211	
195	
183	
194	
176	
168	
217	
168	
209	
217	
193	
188	
198	
172	
204	
219	
189	
205	
195	
148	
192	
177	
192	
193	
208	
200	
174	
198	
177	
180	
188	
202	
194	
174	
180	
188	
205	
199	
161	
190	
172	
189	
175	
171	
193	
182	
185	
178	
186	
177	
182	
168	
178	
176	
188	
174	
193	
180	
178	
157	
180	
186	
175	
211	
175	
172	
190	
185	
183	
203	
153	
178	
186	
177	
140	
163	
177	
182	
169	
160	
177	
187	
172	
212	
167	
161	
180	
172	
163	
177	
162	
154	
160	
167	
168	
159	
183	
173	
187	
164	
171	
181	
163	
195	
162	
155	
167	
147	
163	
188	
175	
161	
173	
156	
161	
175	
152	
143	
164	
164	
136	
165	
178	
154	
173	
159	
148	
170	
155	
181	
173	
160	
161	
177	
153	
158	
164	
158	
172	
173	
171	
166	
153	
151	
163	
146	
164	
150	
181	
157	
168	
153	
132	
148	
150	
164	
157	
148	
157	
157	
141	
154	
145	
156	
168	
151	
155	
149	
165	
165	
130	
177	
140	
149	
175	
185	
156	
167	
120	
173	
146	
128	
157	
145	
159	
154	
139	
173	
135	
141	
173	
147	
140	
150	
166	
159	
141	
147	
162	
170	
154	
139	
146	
155	
171	
160	
135	
160	
159	
157	
158	
153	
140	
168	
152	
144	
152	
172	
138	
151	
143	
170	
146	
152	
135	
152	
132	
145	
137	
132	
147	
143	
168	
164	
126	
126	
132	
165	
153	
129	
140	
152	
154	
135	
147	
148	
160	
151	
136	
146	
146	
157	
157	
163	
146	
171	
143	
149	
129	
147	
188	
159	
136	
129	
143	
159	
131	
162	
162	
148	
142	
147	
135	
156	
154	
157	
146	
143	
128	
149	
129	
140	
122	
151	
145	
130	
136	
137	
123	
129	
121	
121	
140	
147	
135	
158	
144	
137	
160	
137	
150	
139	
143	
136	
153	
143	
121	
159	
159	
127	
146	
127	
137	
147	
146	
126	
124	
127	
123	
123	
169	
129	
118	
125	
126	
125	
114	
123	
157	
147	
143	
145	
148	
129	
130	
139	
123	
128	
140	
138	
136	
128	
149	
122	
151	
119	
114	
135	
132	
118	
128	
159	
136	
128	
150	
140	
125	
134	
139	
130	
106	
141	
120	
118	
127	
120	
153	
124	
115	
134	
139	
141	
138	
124	
131	
127	
123	
140	
122	
133	
103	
127	
119	
121	
140	
141	
124	
141	
131	
123	
135	
125	
126	
126	
130	
136	
140	
124	
140	
129	
135	
149	
122	
127	
127	
139	
111	
127	
126	
125	
109	
137	
130	
134	
137	
114	
123	
116	
141	
102	
124	
125	
122	
119	
123	
131	
117	
124	
112	
98	
130	
121	
121	
135	
106	
110	
126	
123	
109	
136	
111	
117	
139	
128	
120	
118	
124	
128	
113	
134	
114	
103	
109	
113	
117	
114	
116	
128	
114	
119	
117	
114	
124	
120	
117	
123	
107	
123	
129	
131	
134	
118	
137	
124	
115	
115	
126	
131	
110	
122	
120	
121	
103	
116	
127	
114	
112	
110	
147	
113	
117	
112	
108	
111	
136	
110	
97	
128	
126	
105	
114	
106	
114	
102	
114	
114	
114	
117	
123	
104	
109	
116	
137	
93	
108	
134	
111	
125	
104	
132	
124	
109	
112	
120	
126	
99	
126	
121	
99	
102	
144	
110	
111	
124	
108	
121	
114	
88	
126	
109	
94	
120	
105	
115	
109	
110	
118	
108	
117	
122	
96	
130	
96	
107	
110	
111	
109	
105	
108	
120	
101	
129	
119	
117	
130	
104	
108	
101	
123	
112	
104	
124	
110	
105	
105	
102	
102	
110	
111	
94	
112	
110	
114	
107	
101	
110	
102	
119	
101	
108	
134	
106	
86	
95	
96	
93	
87	
97	
107	
106	
107	
120	
117	
90	
110	
112	
99	
114	
116	
102	
102	
103	
104	
111	
103	
130	
122	
102	
113	
127	
93	
112	
122	
121	
102	
113	
99	
92	
95	
120	
105	
109	
90	
95	
98	
101	
115	
104	
106	
89	
126	
107	
119	
109	
110	
103	
104	
120	
108	
102	
106	
118	
96	
111	
96	
105	
94	
94	
110	
105	
90	
99	
88	
99	
78	
91	
89	
94	
100	
92	
101	
98	
121	
83	
106	
89	
101	
99	
114	
110	
117	
106	
96	
110	
109	
110	
85	
111	
98	
101	
92	
89	
86	
96	
101	
92	
91	
112	
107	
116	
105	
112	
100	
109	
98	
100	
100	
98	
106	
88	
93	
102	
105	
99	
93	
107	
96	
94	
90	
103	
93	
118	
94	
105	
103	
79	
105	
117	
99	
99	
94	
76	
91	
106	
87	
104	
102	
91	
111	
103	
86	
104	
113	
106	
91	
104	
79	
94	
89	
105	
84	
93	
106	
77	
90	
76	
87	
79	
102	
106	
106	
86	
93	
90	
105	
90	
94	
91	
100	
105	
86	
94	
117	
81	
95	
88	
99	
97	
108	
92	
92	
107	
93	
107	
79	
100	
87	
85	
95	
82	
94	
110	
86	
110	
80	
103	
87	
84	
77	
90	
84	
92	
94	
84	
94	
104	
96	
83	
97	
85	
94	
103	
80	
78	
75	
84	
103	
89	
95	
76	
93	
85	
85	
83	
91	
101	
90	
80	
100	
89	
82	
105	
80	
89	
87	
90	
96	
91	
100	
91	
110	
101	
95	
105	
88	
97	
98	
96	
109	
98	
92	
97	
96	
76	
112	
87	
85	
81	
98	
84	
73	
85	
97	
99	
91	
88	
90	
81	
91	
106	
75	
92	
75	
65	
95	
86	
94	
84	
99	
75	
82	
109	
91	
78	
94	
96	
93	
86	
86	
82	
87	
82	
84	
91	
84	
103	
87	
81	
89	
78	
98	
63	
110	
66	
93	
97	
91	
77	
84	
85	
87	
91	
84	
87	
83	
95	
102	
107	
93	
77	
92	
72	
85	
73	
99	
91	
90	
99	
71	
72	
79	
80	
95	
75	
83	
96	
75	
84	
84	
76	
81	
88	
71	
81	
96	
85	
64	
65	
93	
76	
88	
79	
89	
92	
72	
84	
80	
78	
80	
84	
93	
99	
71	
100	
85	
73	
107	
81	
71	
82	
87	
79	
69	
102	
68	
79	
82	
80	
76	
71	
82	
69	
93	
79	
78	
85	
91	
69	
96	
73	
91	
92	
73	
85	
70	
94	
74	
72	
81	
77	
65	
90	
69	
89	
80	
85	
81	
95	
81	
75	
90	
95	
80	
69	
82	
64	
91	
88	
89	
95	
61	
68	
96	
71	
75	
73	
90	
75	
77	
65	
87	
84	
80	
81	
81	
70	
77	
79	
77	
77	
62	
65	
89	
93	
66	
71	
75	
83	
87	
90	
80	
80	
72	
86	
61	
69	
82	
78	
70	
74	
80	
81	
73	
81	
78	
77	
80	
74	
92	
78	
80	
79	
75	
87	
85	
71	
92	
85	
92	
70	
82	
80	
69	
69	
68	
84	
75	
85	
74	
82	
72	
84	
57	
72	
97	
97	
85	
65	
91	
79	
70	
84	
55	
90	
78	
59	
68	
82	
68	
79	
77	
75	
84	
82	
78	
80	
78	
71	
62	
78	
80	
71	
54	
75	
61	
78	
69	
80	
76	
62	
70	
81	
79	
87	
87	
72	
68	
65	
78	
68	
86	
71	
61	
81	
61	
81	
71	
81	
85	
79	
56	
78	
71	
66	
72	
69	
83	
65	
72	
75	
70	
74	
78	
79	
70	
74	
72	
74	
67	
83	
62	
63	
82	
83	
75	
74	
76	
79	
61	
98	
75	
86	
64	
56	
64	
75	
66	
72	
59	
81	
81	
63	
61	
78	
68	
82	
80	
70	
68	
82	
69	
80	
59	
61	
62	
71	
70	
68	
64	
81	
66	
68	
73	
72	
75	
80	
67	
75	
60	
77	
83	
65	
55	
67	
71	
68	
65	
70	
63	
73	
76	
65	
74	
67	
74	
66	
62	
66	
55	
70	
64	
78	
49	
65	
59	
71	
57	
63	
78	
65	
79	
84	
68	
65	
80	
72	
73	
72	
67	
67	
62	
73	
78	
82	
52	
86	
65	
71	
72	
76	
73	
67	
71	
65	
59	
66	
64	
68	
73	
61	
60	
78	
81	
82	
71	
56	
68	
65	
68	
72	
52	
57	
57	
71	
79	
76	
65	
54	
72	
86	
54	
67	
60	
69	
59	
75	
55	
64	
69	
49	
71	
68	
74	
73	
68	
76	
52	
72	
68	
52	
49	
69	
73	
61	
70	
75	
70	
68	
71	
53	
62	
69	
59	
49	
78	
66	
58	
50	
67	
70	
69	
63	
53	
60	
64	
69	
68	
72	
63	
66	
71	
76	
59	
55	
60	
64	
80	
68	
60	
64	
53	
44	
45	
83	
56	
52	
79	
60	
65	
60	
68	
69	
66	
78	
59	
67	
68	
73	
62	
67	
82	
53	
69	
66	
56	
72	
58	
57	
61	
77	
53	
65	
56	
57	
67	
53	
63	
73	
69	
62	
59	
59	
48	
61	
58	
62	
63	
56	
62	
64	
72	
47	
71	
66	
54	
63	
52	
86	
55	
68	
48	
66	
69	
64	
59	
65	
49	
66	
88	
65	
53	
61	
74	
62	
67	
61	
62	
73	
57	
61	
58	
64	
70	
47	
68	
55	
60	
78	
67	
64	
55	
53	
52	
54	
58	
68	
67	
53	
59	
57	
53	
66	
54	
59	
68	
61	
51	
71	
61	
48	
58	
56	
54	
55	
64	
52	
76	
65	
63	
55	
62	
52	
49	
54	
61	
41	
59	
72	
69	
63	
54	
50	
71	
57	
66	
61	
54	
44	
60	
64	
62	
72	
53	
68	
52	
60	
65	
62	
60	
47	
47	
61	
55	
56	
61	
57	
63	
71	
77	
54	
60	
66	
63	
53	
47	
46	
50	
49	
49	
44	
55	
47	
58	
59	
54	
65	
51	
65	
54	
48	
49	
77	
57	
47	
56	
49	
49	
50	
54	
48	
49	
53	
62	
51	
61	
49	
61	
66	
53	
41	
57	
68	
63	
51	
63	
66	
64	
61	
72	
69	
61	
50	
62	
54	
68	
63	
58	
61	
61	
74	
71	
63	
48	
64	
57	
50	
49	
58	
51	
77	
62	
69	
59	
67	
58	
55	
58	
50	
58	
53	
49	
46	
59	
49	
57	
51	
60	
53	
66	
49	
59	
60	
49	
52	
43	
58	
60	
44	
64	
46	
54	
52	
62	
59	
66	
49	
48	
54	
53	
56	
60	
52	
77	
55	
43	
47	
68	
76	
76	
60	
61	
41	
54	
66	
65	
58	
43	
61	
59	
57	
48	
62	
61	
55	
56	
45	
63	
46	
62	
67	
72	
51	
55	
48	
57	
48	
65	
52	
54	
51	
47	
65	
55	
56	
47	
44	
63	
65	
67	
46	
44	
49	
55	
43	
51	
51	
58	
44	
46	
57	
54	
56	
42	
64	
59	
61	
58	
69	
51	
42	
43	
60	
46	
53	
55	
68	
53	
54	
44	
68	
56	
50	
51	
51	
58	
56	
53	
51	
59	
48	
47	
50	
53	
57	
60	
50	
50	
42	
55	
55	
55	
58	
45	
48	
52	
47	
46	
49	
46	
63	
63	
59	
48	
42	
41	
56	
51	
52	
63	
54	
50	
58	
49	
49	
48	
52	
50	
40	
46	
42	
54	
54	
54	
50	
64	
58	
55	
47	
39	
41	
68	
49	
52	
37	
47	
46	
58	
54	
42	
51	
50	
43	
34	
51	
44	
43	
52	
50	
46	
46	
50	
49	
58	
36	
51	
40	
49	
43	
38	
53	
42	
49	
61	
46	
47	
37	
42	
40	
53	
54	
38	
42	
46	
59	
46	
41	
50	
53	
65	
50	
49	
42	
39	
47	
38	
46	
49	
44	
41	
47	
32	
52	
59	
49	
40	
53	
33	
49	
40	
54	
59	
51	
55	
56	
53	
50	
51	
54	
52	
50	
51	
57	
37	
48	
57	
45	
58	
60	
55	
48	
52	
50	
48	
32	
43	
46	
42	
43	
54	
58	
43	
40	
58	
55	
43	
58	
48	
41	
62	
49	
49	
49	
47	
46	
41	
38	
42	
46	
57	
42	
44	
58	
44	
39	
46	
45	
55	
47	
55	
48	
50	
39	
50	
32	
45	
48	
44	
53	
34	
42	
52	
48	
42	
53	
51	
39	
55	
58	
57	
49	
48	
50	
41	
56	
41	
42	
46	
38	
53	
58	
55	
39	
42	
32	
43	
49	
41	
42	
43	
36	
47	
59	
44	
56	
47	
46	
37	
46	
34	
45	
51	
43	
33	
46	
34	
37	
52	
43	
37	
48	
41	
40	
38	
45	
44	
48	
37	
41	
40	
51	
34	
48	
44	
58	
48	
41	
31	
47	
33	
50	
50	
45	
39	
52	
47	
48	
38	
39	
48	
60	
43	
51	
46	
60	
48	
42	
42	
55	
43	
50	
47	
46	
44	
52	
41	
57	
37	
48	
40	
35	
50	
46	
35	
41	
46	
32	
44	
54	
31	
38	
62	
43	
54	
41	
40	
47	
45	
46	
34	
49	
43	
51	
34	
48	
53	
43	
41	
43	
28	
26	
55	
38	
41	
44	
39	
36	
37	
47	
47	
44	
44	
58	
49	
42	
52	
40	
42	
47	
50	
42	
49	
45	
49	
42	
48	
51	
44	
41	
53	
49	
52	
39	
40	
40	
40	
53	
50	
44	
35	
46	
36	
34	
40	
50	
51	
46	
38	
42	
43	
46	
35	
45	
49	
45	
42	
50	
32	
29	
56	
46	
49	
45	
38	
44	
36	
47	
42	
45	
41	
37	
30	
34	
44	
55	
40	
41	
39	
37	
39	
39	
35	
27	
42	
43	
31	
56	
38	
41	
31	
42	
52	
38	
48	
49	
39	
36	
35	
28	
36	
38	
35	
47	
42	
42	
35	
37	
36	
46	
35	
40	
39	
45	
40	
43	
41	
38	
45	
34	
45	
30	
45	
50	
43	
34	
39	
42	
37	
36	
46	
39	
36	
43	
41	
37	
52	
31	
32	
38	
42	
42	
50	
46	
39	
43	
46	
46	
40	
40	
43	
51	
39	
45	
37	
37	
29	
28	
47	
45	
37	
31	
46	
39	
33	
56	
37	
44	
37	
34	
67	
41	
35	
30	
37	
33	
37	
35	
40	
36	
46	
46	
46	
45	
33	
50	
42	
38	
29	
43	
37	
34	
35	
32	
39	
43	
30	
53	
37	
37	
34	
52	
42	
45	
36	
39	
42	
50	
46	
37	
36	
33	
37	
38	
35	
31	
40	
38	
35	
35	
39	
37	
36	
42	
40	
40	
36	
31	
43	
62	
34	
45	
37	
35	
40	
47	
36	
45	
50	
31	
36	
41	
44	
53	
41	
48	
43	
35	
37	
47	
36	
37	
39	
50	
35	
33	
45	
44	
47	
35	
49	
30	
42	
39	
48	
33	
44	
33	
46	
42	
44	
39	
34	
42	
32	
44	
29	
28	
35	
30	
30	
42	
50	
36	
33	
42	
36	
47	
34	
36	
28	
30	
40	
42	
40	
40	
42	
42	
35	
33	
29	
36	
39	
42	
38	
46	
37	
51	
31	
45	
37	
29	
33	
37	
43	
37	
39	
46	
36	
34	
41	
33	
45	
39	
45	
53	
28	
33	
33	
47	
49	
32	
40	
27	
40	
26	
42	
35	
23	
41	
35	
48	
50	
34	
28	
37	
40	
36	
25	
37	
43	
27	
46	
39	
45	
40	
47	
27	
21	
32	
36	
35	
42	
34	
31	
37	
46	
29	
36	
48	
31	
40	
38	
35	
29	
38	
43	
44	
34	
40	
41	
42	
29	
22	
36	
34	
36	
40	
25	
28	
33	
46	
47	
30	
35	
30	
36	
42	
40	
38	
36	
30	
32	
38	
40	
45	
36	
37	
30	
31	
45	
41	
38	
35	
33	
43	
38	
37	
35	
29	
28	
37	
39	
41	
27	
32	
31	
28	
30	
38	
33	
29	
37	
31	
44	
31	
34	
31	
43	
33	
27	
26	
31	
43	
46	
38	
37	
30	
32	
31	
38	
30	
37	
37	
42	
42	
31	
27	
35	
36	
40	
19	
34	
28	
33	
37	
37	
38	
24	
31	
36	
31	
21	
39	
43	
28	
39	
39	
31	
38	
27	
36	
32	
39	
32	
36	
30	
31	
33	
26	
34	
37	
23	
30	
35	
34	
22	
24	
30	
29	
32	
37	
39	
37	
29	
41	
40	
29	
34	
29	
36	
30	
29	
41	
29	
36	
24	
35	
35	
29	
30	
34	
27	
29	
27	
36	
39	
36	
34	
27	
35	
29	
34	
33	
37	
34	
33	
24	
23	
45	
34	
35	
31	
34	
32	
27	
30	
36	
34	
43	
33	
25	
37	
33	
36	
26	
28	
29	
32	
34	
29	
32	
30	
35	
26	
40	
35	
42	
44	
40	
39	
29	
34	
48	
45	
43	
23	
36	
26	
28	
31	
33	
32	
26	
29	
28	
36	
31	
35	
39	
41	
35	
30	
38	
24	
41	
38	
29	
24	
28	
32	
40	
23	
33	
24	
27	
39	
30	
34	
33	
30	
32	
23	
29	
28	
30	
27	
32	
19	
24	
38	
26	
23	
29	
27	
44	
38	
26	
41	
30	
29	
21	
39	
33	
36	
26	
28	
38	
40	
30	
30	
36	
27	
35	
31	
40	
30	
39	
21	
36	
28	
36	
23	
37	
32	
34	
29	
22	
33	
33	
33	
35	
36	
29	
30	
36	
28	
34	
40	
23	
30	
37	
32	
28	
40	
28	
23	
30	
23	
32	
37	
21	
27	
21	
31	
29	
38	
32	
23	
31	
33	
30	
32	
41	
31	
37	
28	
27	
33	
33	
24	
35	
32	
35	
24	
33	
28	
32	
28	
38	
25	
35	
31	
31	
23	
35	
31	
32	
31	
29	
34	
25	
28	
28	
41	
37	
30	
36	
30	
48	
36	
29	
30	
32	
37	
40	
29	
27	
32	
30	
37	
30	
24	
27	
30	
31	
27	
24	
31	
30	
23	
30	
28	
26	
27	
29	
19	
26	
36	
39	
31	
32	
37	
30	
20	
28	
23	
30	
38	
28	
21	
38	
30	
32	
24	
31	
30	
24	
31	
28	
27	
31	
28	
21	
37	
26	
28	
38	
41	
35	
27	
26	
27	
30	
25	
31	
17	
22	
21	
27	
34	
22	
27	
31	
38	
32	
33	
31	
37	
29	
33	
29	
24	
38	
33	
28	
25	
26	
24	
18	
34	
30	
33	
37	
27	
30	
35	
33	
33	
32	
30	
31	
20	
35	
33	
20	
30	
32	
34	
28	
20	
28	
29	
25	
29	
32	
22	
27	
26	
24	
22	
29	
21	
27	
30	
29	
23	
34	
36	
34	
23	
28	
29	
22	
30	
32	
41	
24	
27	
25	
32	
25	
25	
31	
18	
29	
31	
28	
25	
37	
23	
33	
37	
23	
27	
34	
40	
29	
23	
40	
25	
23	
27	
27	
29	
29	
27	
29	
28	
23	
21	
21	
27	
30	
26	
31	
20	
25	
16	
32	
19	
32	
26	
31	
35	
28	
32	
35	
25	
25	
19	
35	
20	
23	
17	
27	
22	
35	
29	
34	
24	
31	
25	
21	
19	
16	
30	
25	
30	
29	
28	
24	
23	
27	
19	
32	
30	
22	
24	
24	
34	
28	
19	
24	
32	
21	
26	
26	
23	
36	
32	
33	
27	
21	
20	
32	
33	
28	
22	
29	
19	
36	
28	
21	
31	
27	
24	
32	
26	
26	
40	
29	
24	
22	
35	
18	
29	
35	
23	
34	
26	
25	
25	
31	
23	
30	
27	
33	
21	
26	
28	
20	
30	
22	
26	
33	
26	
23	
16	
18	
25	
31	
31	
27	
23	
27	
25	
28	
24	
26	
24	
26	
26	
24	
30	
37	
25	
23	
17	
20	
27	
40	
25	
27	
22	
28	
22	
29	
30	
19	
23	
35	
18	
31	
27	
30	
19	
29	
38	
22	
33	
29	
31	
31	
21	
25	
15	
22	
21	
32	
24	
29	
20	
23	
26	
20	
21	
25	
19	
20	
12	
23	
28	
31	
19	
23	
30	
24	
38	
17	
22	
31	
31	
32	
24	
22	
19	
41	
17	
42	
28	
24	
25	
32	
16	
23	
25	
30	
26	
24	
23	
19	
29	
21	
21	
22	
23	
35	
30	
27	
29	
27	
25	
28	
27	
18	
33	
40	
22	
18	
39	
22	
24	
27	
19	
25	
27	
36	
22	
24	
26	
30	
25	
24	
19	
29	
21	
28	
21	
17	
24	
31	
25	
23	
35	
28	
28	
16	
19	
21	
24	
27	
19	
22	
28	
21	
21	
22	
17	
26	
28	
34	
35	
21	
19	
17	
18	
26	
30	
24	
13	
18	
21	
21	
24	
20	
27	
21	
17	
21	
28	
22	
18	
21	
25	
21	
21	
22	
25	
26	
29	
24	
23	
24	
21	
20	
18	
28	
21	
23	
31	
36	
25	
20	
12	
22	
26	
19	
19	
26	
19	
23	
22	
17	
16	
27	
21	
22	
28	
26	
25	
28	
27	
23	
11	
31	
29	
27	
32	
29	
17	
21	
19	
26	
15	
23	
20	
27	
24	
25	
21	
23	
19	
21	
17	
21	
28	
30	
25	
21	
24	
22	
25	
25	
28	
23	
25	
27	
27	
32	
22	
27	
17	
22	
23	
20	
20	
25	
26	
29	
28	
21	
20	
22	
29	
26	
25	
21	
29	
18	
36	
23	
26	
24	
14	
27	
17	
20	
30	
20	
14	
22	
28	
22	
27	
20	
30	
19	
20	
23	
19	
27	
19	
20	
23	
18	
25	
24	
14	
18	
24	
14	
19	
15	
19	
23	
19	
17	
30	
22	
14	
26	
20	
23	
17	
23	
17	
15	
18	
23	
21	
13	
19	
21	
20	
24	
24	
24	
26	
31	
21	
27	
21	
20	
22	
24	
20	
22	
24	
15	
20	
13	
18	
22	
26	
23	
26	
33	
29	
29	
24	
34	
18	
23	
18	
20	
17	
25	
24	
27	
18	
21	
21	
24	
18	
24	
30	
30	
19	
19	
26	
26	
24	
21	
22	
18	
27	
16	
19	
27	
24	
24	
27	
28	
18	
23	
23	
32	
27	
17	
15	
22	
25	
28	
22	
27	
24	
22	
22	
22	
24	
21	
26	
20	
27	
21	
23	
28	
25	
15	
23	
25	
22	
18	
35	
13	
17	
16	
25	
15	
24	
20	
27	
18	
32	
23	
22	
22	
21	
24	
23	
12	
34	
19	
13	
13	
21	
26	
16	
21	
32	
25	
15	
27	
28	
17	
24	
21	
19	
26	
20	
21	
23	
18	
19	
20	
25	
17	
24	
24	
16	
21	
11	
25	
21	
16	
23	
19	
23	
29	
24	
21	
19	
24	
32	
28	
20	
23	
22	
17	
19	
21	
21	
18	
22	
20	
25	
32	
21	
12	
20	
19	
20	
21	
22	
22	
24	
16	
28	
16	
26	
18	
16	
25	
29	
23	
26	
15	
22	
21	
20	
20	
18	
20	
24	
21	
19	
27	
24	
15	
18	
16	
19	
19	
14	
12	
20	
13	
21	
17	
30	
25	
19	
20	
28	
22	
15	
16	
19	
15	
21	
21	
22	
20	
24	
14	
26	
15	
23	
37	
19	
24	
17	
16	
15	
20	
20	
24	
23	
21	
27	
28	
18	
33	
22	
19	
12	
17	
18	
20	
29	
18	
18	
16	
28	
16	
15	
17	
19	
17	
21	
13	
21	
22	
12	
22	
20	
26	
21	
29	
21	
20	
12	
17	
22	
20	
22	
20	
22	
21	
23	
17	
17	
19	
21	
17	
15	
12	
24	
25	
20	
16	
18	
17	
13	
18	
13	
28	
18	
16	
20	
16	
15	
23	
25	
15	
25	
13	
21	
18	
22	
22	
22	
14	
24	
18	
32	
17	
12	
23	
12	
18	
20	
15	
25	
20	
25	
13	
21	
25	
17	
21	
22	
19	
19	
19	
23	
23	
24	
13	
26	
24	
14	
25	
18	
26	
20	
19	
18	
18	
14	
25	
18	
13	
26	
19	
21	
13	
14	
22	
14	
21	
20	
17	
18	
22	
25	
25	
21	
16	
15	
20	
29	
15	
11	
26	
17	
24	
26	
26	
21	
17	
21	
23	
14	
23	
14	
29	
15	
18	
18	
18	
21	
22	
21	
19	
18	
14	
21	
23	
14	
11	
18	
20	
22	
21	
15	
26	
14	
16	
20	
19	
20	
21	
7	
17	
22	
16	
14	
35	
24	
19	
28	
18	
25	
26	
21	
17	
11	
20	
27	
17	
10	
21	
13	
14	
22	
14	
16	
25	
19	
19	
20	
17	
28	
21	
20	
11	
16	
12	
17	
15	
20	
19	
26	
8	
21	
20	
17	
18	
19	
23	
19	
20	
19	
17	
15	
18	
25	
12	
14	
21	
17	
24	
16	
18	
18	
17	
20	
13	
15	
22	
9	
18	
13	
17	
22	
17	
17	
14	
19	
28	
17	
26	
13	
14	
19	
12	
15	
18	
16	
20	
20	
14	
16	
12	
17	
15	
28	
16	
19	
16	
17	
18	
12	
21	
26	
13	
17	
22	
19	
17	
14	
15	
22	
17	
14	
14	
20	
12	
17	
19	
20	
14	
18	
12	
20	
15	
18	
21	
10	
20	
13	
21	
20	
17	
20	
23	
16	
12	
22	
20	
21	
20	
22	
15	
13	
16	
20	
11	
19	
13	
27	
12	
4	
23	
17	
15	
18	
20	
14	
14	
12	
18	
16	
12	
22	
12	
18	
14	
16	
14	
17	
16	
13	
20	
14	
15	
21	
13	
19	
23	
18	
19	
14	
13	
22	
15	
15	
22	
16	
10	
22	
20	
21	
19	
14	
15	
19	
19	
26	
20	
22	
20	
8	
21	
20	
22	
23	
22	
13	
15	
9	
15	
9	
18	
14	
23	
14	
19	
24	
19	
20	
11	
13	
21	
10	
15	
16	
10	
21	
23	
18	
17	
20	
18	
18	
23	
17	
12	
15	
19	
12	
13	
18	
25	
23	
21	
17	
18	
12	
24	
12	
12	
19	
15	
22	
17	
16	
15	
13	
16	
15	
20	
16	
14	
23	
22	
15	
18	
20	
15	
19	
20	
15	
18	
20	
14	
15	
17	
14	
17	
15	
18	
16	
17	
18	
18	
26	
16	
20	
16	
16	
20	
18	
20	
11	
18	
16	
11	
14	
21	
22	
11	
21	
16	
14	
14	
20	
17	
16	
22	
21	
11	
18	
18	
25	
19	
19	
21	
20	
18	
16	
16	
13	
11	
14	
14	
18	
12	
10	
16	
12	
17	
19	
13	
13	
10	
21	
12	
11	
15	
15	
16	
15	
13	
21	
20	
13	
13	
25	
17	
18	
12	
16	
14	
14	
16	
14	
21	
9	
21	
18	
11	
18	
15	
15	
23	
10	
20	
17	
22	
11	
20	
17	
21	
20	
14	
16	
21	
13	
14	
20	
15	
18	
15	
13	
8	
15	
19	
28	
15	
10	
16	
19	
16	
17	
18	
20	
14	
15	
16	
9	
18	
16	
18	
14	
13	
16	
20	
13	
11	
12	
13	
11	
17	
13	
12	
16	
13	
16	
18	
15	
12	
22	
17	
13	
27	
18	
8	
15	
17	
15	
20	
16	
16	
13	
13	
14	
15	
11	
20	
9	
12	
17	
18	
18	
11	
16	
14	
19	
17	
19	
15	
18	
13	
13	
11	
13	
7	
10	
11	
12	
7	
10	
20	
13	
14	
9	
16	
12	
26	
13	
17	
12	
25	
16	
15	
16	
11	
15	
12	
18	
23	
20	
11	
15	
24	
13	
13	
14	
11	
15	
12	
19	
16	
19	
18	
19	
10	
14	
12	
13	
15	
11	
24	
8	
18	
12	
9	
13	
16	
16	
17	
18	
22	
12	
16	
18	
19	
17	
12	
20	
7	
26	
12	
11	
11	
14	
10	
17	
15	
15	
15	
15	
14	
16	
11	
12	
14	
11	
13	
8	
16	
15	
14	
18	
10	
21	
16	
17	
14	
18	
12	
11	
17	
10	
15	
14	
12	
12	
14	
20	
12	
15	
5	
22	
13	
16	
18	
16	
18	
15	
8	
18	
13	
16	
14	
12	
16	
18	
16	
14	
22	
20	
18	
17	
6	
22	
17	
10	
11	
27	
14	
13	
17	
19	
12	
18	
18	
11	
15	
13	
13	
6	
15	
14	
9	
16	
22	
15	
10	
20	
19	
13	
16	
17	
21	
12	
18	
10	
10	
10	
13	
14	
17	
15	
19	
7	
11	
8	
14	
11	
12	
15	
13	
15	
17	
10	
12	
13	
13	
9	
18	
15	
14	
14	
15	
15	
14	
10	
15	
12	
12	
13	
12	
12	
11	
14	
9	
12	
8	
11	
12	
13	
16	
16	
12	
19	
15	
22	
15	
15	
17	
11	
15	
15	
15	
6	
13	
9	
16	
9	
17	
11	
18	
20	
9	
16	
10	
22	
10	
14	
15	
10	
21	
23	
10	
17	
15	
12	
19	
9	
14	
11	
10	
18	
20	
20	
8	
11	
7	
19	
13	
11	
16	
10	
16	
11	
10	
14	
19	
14	
16	
19	
13	
14	
10	
17	
8	
18	
16	
7	
11	
15	
12	
10	
12	
9	
14	
13	
17	
10	
13	
13	
14	
10	
21	
9	
10	
13	
11	
7	
15	
16	
15	
15	
21	
13	
16	
15	
16	
11	
12	
10	
7	
13	
22	
16	
9	
13	
13	
13	
13	
14	
10	
10	
13	
15	
20	
12	
10	
11	
18	
13	
13	
10	
7	
17	
14	
14	
11	
15	
12	
10	
19	
11	
15	
14	
16	
9	
6	
14	
12	
16	
19	
22	
25	
16	
8	
10	
17	
9	
11	
17	
12	
10	
14	
6	
13	
17	
9	
11	
10	
14	
18	
15	
17	
14	
6	
14	
12	
17	
15	
19	
15	
17	
12	
15	
15	
17	
12	
13	
15	
10	
18	
8	
20	
8	
13	
12	
15	
12	
10	
13	
14	
14	
14	
9	
9	
15	
18	
12	
18	
15	
11	
21	
11	
11	
16	
9	
13	
9	
11	
9	
8	
6	
10	
15	
10	
20	
13	
6	
15	
13	
16	
13	
11	
17	
10	
13	
14	
11	
9	
18	
8	
12	
16	
18	
19	
18	
16	
11	
10	
16	
15	
10	
11	
13	
11	
7	
11	
18	
3	
17	
10	
9	
11	
8	
12	
15	
8	
9	
11	
10	
21	
6	
16	
12	
14	
12	
12	
10	
16	
14	
10	
8	
9	
16	
11	
18	
11	
16	
11	
8	
7	
4	
11	
13	
5	
15	
14	
13	
17	
6	
11	
16	
13	
7	
15	
9	
8	
11	
9	
13	
14	
15	
14	
17	
17	
10	
17	
13	
16	
9	
18	
12	
13	
9	
16	
15	
11	
13	
12	
14	
10	
5	
7	
12	
12	
13	
10	
9	
16	
11	
18	
13	
12	
15	
14	
10	
8	
12	
17	
10	
11	
8	
18	
15	
13	
15	
10	
9	
10	
13	
14	
17	
9	
9	
8	
14	
15	
8	
10	
21	
11	
11	
14	
20	
21	
14	
11	
16	
9	
19	
13	
11	
17	
8	
15	
10	
17	
9	
12	
13	
12	
10	
12	
10	
14	
8	
7	
9	
12	
11	
8	
4	
10	
9	
16	
17	
9	
11	
15	
9	
8	
9	
9	
14	
13	
14	
7	
15	
15	
10	
18	
9	
14	
9	
10	
13	
12	
8	
11	
12	
9	
11	
14	
8	
7	
14	
10	
11	
10	
12	
14	
14	
11	
9	
17	
15	
18	
8	
8	
9	
12	
18	
13	
14	
17	
10	
7	
10	
9	
16	
13	
13	
8	
9	
6	
13	
9	
9	
11	
15	
13	
9	
14	
13	
10	
15	
7	
15	
16	
7	
14	
12	
12	
14	
12	
6	
11	
13	
10	
5	
6	
13	
13	
13	
12	
11	
16	
14	
10	
15	
12	
11	
12	
13	
13	
16	
15	
14	
15	
9	
13	
9	
12	
11	
8	
17	
8	
14	
12	
8	
11	
13	
9	
15	
14	
12	
8	
7	
12	
12	
15	
9	
15	
15	
21	
9	
9	
5	
9	
10	
10	
15	
8	
7	
7	
10	
11	
9	
10	
11	
15	
11	
8	
15	
13	
8	
8	
17	
11	
13	
7	
10	
9	
11	
7	
14	
9	
9	
5	
10	
16	
16	
10	
16	
9	
11	
14	
19	
16	
6	
10	
8	
12	
6	
11	
10	
11	
7	
10	
9	
13	
7	
5	
5	
12	
11	
13	
13	
8	
14	
10	
15	
7	
16	
9	
10	
4	
12	
11	
6	
7	
14	
10	
11	
11	
8	
9	
10	
15	
9	
14	
16	
13	
11	
12	
15	
10	
13	
12	
10	
12	
17	
9	
5	
3	
10	
16	
15	
20	
21	
10	
11	
9	
9	
5	
13	
10	
10	
9	
9	
7	
9	
17	
16	
11	
9	
10	
14	
9	
14	
10	
13	
13	
14	
9	
7	
14	
15	
16	
14	
15	
8	
9	
11	
5	
9	
13	
11	
8	
11	
18	
7	
16	
8	
8	
19	
12	
8	
13	
11	
9	
3	
13	
8	
11	
9	
10	
3	
14	
18	
8	
8	
14	
5	
9	
13	
13	
9	
7	
12	
14	
6	
7	
8	
10	
18	
9	
11	
18	
7	
12	
11	
5	
11	
14	
8	
5	
7	
10	
14	
14	
13	
8	
12	
14	
11	
8	
4	
13	
8	
12	
16	
10	
21	
13	
14	
9	
8	
11	
8	
8	
6	
8	
10	
14	
10	
8	
12	
11	
11	
10	
12	
11	
18	
13	
14	
12	
7	
8	
5	
5	
10	
17	
8	
10	
12	
9	
11	
7	
11	
17	
10	
11	
6	
12	
11	
11	
10	
8	
8	
9	
11	
16	
15	
12	
6	
10	
11	
17	
4	
12	
16	
9	
6	
14	
8	
12	
12	
11	
14	
8	
7	
11	
10	
13	
8	
12	
9	
11	
7	
12	
13	
8	
7	
8	
20	
11	
12	
11	
12	
14	
11	
9	
11	
13	
11	
8	
15	
5	
9	
5	
15	
6	
8	
6	
12	
5	
10	
9	
3	
16	
12	
14	
10	
11	
11	
14	
5	
7	
7	
19	
7	
10	
11	
12	
8	
7	
7	
11	
16	
16	
11	
12	
15	
11	
6	
6	
11	
9	
4	
8	
3	
11	
10	
8	
14	
10	
12	
10	
11	
7	
9	
8	
13	
11	
7	
15	
7	
7	
5	
14	
10	
6	
11	
10	
8	
12	
8	
5	
9	
9	
11	
14	
10	
11	
8	
5	
8	
8	
10	
18	
10	
12	
11	
7	
14	
8	
11	
11	
9	
8	
15	
12	
8	
13	
14	
9	
10	
11	
7	
10	
9	
11	
6	
4	
7	
5	
10	
8	
9	
7	
12	
6	
9	
11	
10	
7	
7	
11	
13	
9	
14	
9	
10	
12	
14	
15	
11	
10	
13	
5	
6	
10	
12	
10	
9	
11	
7	
3	
16	
15	
5	
13	
10	
8	
8	
14	
12	
11	
12	
13	
9	
12	
5	
5	
6	
8	
6	
11	
13	
12	
14	
7	
6	
9	
14	
7	
20	
16	
11	
6	
4	
8	
10	
12	
9	
9	
7	
8	
10	
10	
10	
9	
4	
13	
10	
8	
8	
8	
6	
11	
12	
11	
9	
6	
8	
5	
14	
6	
5	
6	
7	
10	
6	
15	
13	
6	
9	
9	
5	
8	
8	
9	
12	
14	
13	
7	
5	
9	
18	
11	
6	
8	
8	
4	
7	
14	
8	
7	
4	
10	
11	
14	
13	
5	
5	
11	
10	
8	
9	
9	
9	
10	
6	
8	
4	
12	
9	
7	
9	
6	
9	
12	
9	
8	
13	
10	
8	
11	
8	
6	
13	
5	
5	
9	
8	
8	
9	
10	
14	
9	
7	
12	
11	
8	
14	
1	
12	
7	
6	
11	
6	
9	
10	
14	
14	
6	
12	
5	
7	
13	
8	
13	
8	
8	
7	
13	
11	
11	
3	
3	
7	
9	
9	
11	
9	
14	
7	
10	
10	
6	
8	
12	
17	
9	
8	
10	
5	
8	
11	
11	
8	
8	
5	
10	
12	
6	
8	
7	
9	
9	
8	
7	
10	
9	
4	
11	
8	
8	
15	
5	
6	
9	
5	
11	
6	
8	
9	
8	
6	
8	
10	
7	
16	
12	
8	
8	
10	
6	
10	
11	
4	
7	
8	
18	
9	
5	
3	
12	
8	
10	
4	
6	
11	
12	
9	
9	
9	
10	
7	
11	
10	
11	
8	
9	
3	
7	
9	
10	
6	
13	
7	
7	
7	
4	
11	
10	
10	
6	
7	
9	
7	
10	
8	
10	
8	
13	
12	
7	
9	
8	
6	
3	
9	
10	
10	
5	
7	
3	
7	
9	
9	
6	
13	
7	
9	
9	
9	
3	
5	
5	
7	
6	
7	
11	
8	
3	
11	
9	
15	
9	
5	
9	
9	
10	
8	
11	
12	
9	
5	
3	
14	
7	
11	
7	
6	
8	
6	
7	
4	
6	
5	
8	
8	
10	
7	
11	
6	
7	
8	
3	
10	
7	
8	
11	
15	
6	
9	
13	
9	
6	
6	
5	
9	
6	
7	
9	
7	
11	
12	
10	
10	
6	
13	
7	
10	
6	
14	
6	
6	
7	
15	
10	
7	
8	
11	
12	
3	
12	
5	
11	
5	
10	
7	
7	
7	
12	
6	
8	
5	
3	
4	
10	
7	
9	
13	
8	
8	
8	
8	
9	
6	
7	
12	
13	
7	
7	
7	
5	
12	
9	
8	
5	
13	
12	
6	
8	
6	
9	
6	
9	
9	
3	
11	
9	
4	
7	
6	
9	
4	
8	
5	
8	
7	
5	
10	
10	
7	
12	
7	
7	
7	
5	
20	
6	
7	
7	
6	
10	
10	
6	
13	
5	
10	
11	
5	
5	
7	
12	
13	
8	
6	
6	
5	
10	
6	
11	
15	
5	
9	
3	
11	
11	
10	
9	
12	
7	
9	
5	
13	
8	
4	
7	
7	
10	
6	
11	
5	
8	
10	
6	
8	
10	
8	
7	
4	
10	
12	
5	
9	
11	
7	
3	
7	
13	
6	
11	
4	
7	
9	
8	
7	
7	
12	
9	
6	
9	
6	
10	
7	
5	
6	
5	
9	
8	
8	
12	
14	
5	
7	
8	
6	
3	
9	
7	
9	
10	
3	
7	
11	
8	
3	
11	
2	
9	
13	
8	
5	
4	
8	
14	
8	
10	
12	
6	
4	
10	
3	
10	
9	
12	
3	
6	
9	
8	
9	
5	
7	
12	
7	
5	
11	
7	
8	
6	
8	
10	
6	
10	
5	
2	
7	
11	
7	
11	
10	
5	
7	
9	
12	
6	
4	
6	
8	
9	
8	
13	
11	
3	
12	
6	
6	
7	
10	
10	
13	
8	
11	
5	
11	
10	
11	
5	
7	
10	
5	
3	
7	
3	
2	
9	
12	
6	
9	
11	
7	
4	
5	
12	
6	
8	
9	
5	
8	
6	
8	
6	
5	
7	
8	
7	
8	
5	
7	
8	
7	
10	
3	
10	
5	
4	
11	
8	
8	
7	
13	
6	
4	
10	
5	
11	
3	
7	
6	
9	
8	
10	
3	
8	
4	
5	
13	
9	
9	
6	
8	
9	
6	
6	
6	
7	
10	
11	
11	
5	
10	
6	
4	
6	
3	
6	
11	
8	
8	
7	
10	
5	
9	
5	
10	
8	
11	
7	
8	
8	
6	
4	
11	
10	
4	
8	
5	
7	
12	
9	
9	
11	
14	
6	
9	
10	
7	
4	
8	
10	
13	
4	
6	
8	
13	
6	
9	
4	
7	
11	
8	
5	
9	
8	
8	
8	
6	
11	
7	
4	
7	
6	
4	
7	
7	
5	
12	
11	
10	
6	
10	
9	
9	
7	
15	
4	
5	
5	
10	
3	
6	
6	
7	
5	
7	
5	
7	
5	
2	
3	
8	
10	
4	
5	
5	
1	
15	
6	
5	
9	
5	
4	
9	
7	
11	
7	
4	
12	
5	
13	
8	
9	
8	
8	
10	
8	
12	
5	
6	
7	
12	
4	
16	
7	
9	
10	
9	
8	
8	
8	
7	
12	
7	
5	
8	
13	
6	
5	
12	
12	
5	
6	
6	
12	
8	
6	
5	
6	
6	
8	
12	
12	
11	
5	
7	
7	
10	
9	
6	
7	
10	
6	
4	
3	
10	
7	
4	
7	
8	
5	
3	
12	
10	
12	
5	
7	
8	
4	
6	
4	
7	
6	
8	
5	
2	
12	
7	
9	
7	
7	
10	
7	
9	
2	
6	
3	
12	
3	
9	
5	
2	
8	
8	
4	
9	
6	
6	
6	
11	
10	
4	
4	
7	
5	
6	
8	
6	
5	
13	
6	
4	
2	
4	
5	
4	
7	
6	
8	
12	
4	
7	
12	
6	
10	
4	
9	
6	
10	
7	
5	
5	
5	
5	
2	
14	
12	
2	
10	
9	
7	
8	
6	
11	
7	
7	
5	
9	
4	
2	
11	
4	
7	
7	
8	
7	
5	
7	
10	
5	
6	
6	
7	
6	
10	
6	
7	
6	
12	
7	
7	
4	
4	
8	
10	
5	
6	
7	
7	
5	
8	
6	
5	
5	
3	
5	
7	
5	
5	
3	
9	
8	
6	
5	
5	
8	
7	
8	
10	
7	
4	
9	
9	
4	
11	
5	
11	
3	
2	
9	
10	
9	
10	
7	
2	
6	
3	
14	
5	
4	
8	
13	
3	
5	
3	
6	
8	
10	
11	
9	
10	
8	
7	
6	
6	
11	
6	
10	
2	
8	
5	
8	
6	
9	
4	
6	
4	
9	
8	
5	
8	
9	
6	
5	
4	
4	
10	
4	
7	
14	
11	
8	
4	
8	
5	
3	
6	
7	
8	
4	
10	
4	
10	
5	
10	
11	
6	
10	
4	
8	
3	
5	
5	
6	
7	
8	
1	
4	
5	
7	
5	
8	
7	
9	
8	
8	
5	
4	
5	
9	
4	
10	
7	
10	
8	
4	
9	
9	
5	
4	
8	
3	
2	
6	
9	
9	
12	
8	
9	
11	
8	
8	
7	
9	
8	
6	
10	
3	
10	
9	
4	
7	
5	
6	
4	
3	
9	
4	
7	
7	
4	
2	
7	
8	
4	
6	
9	
7	
8	
5	
5	
6	
8	
3	
5	
5	
3	
6	
6	
5	
14	
4	
7	
8	
5	
7	
5	
8	
7	
6	
6	
8	
3	
5	
4	
6	
3	
3	
10	
8	
8	
10	
5	
6	
5	
7	
7	
9	
6	
8	
6	
5	
3	
10	
8	
4	
4	
4	
8	
9	
4	
6	
4	
8	
6	
9	
4	
2	
8	
5	
4	
5	
8	
7	
9	
6	
2	
5	
7	
6	
7	
12	
8	
5	
7	
6	
5	
13	
1	
5	
6	
4	
3	
7	
10	
3	
7	
3	
5	
5	
6	
4	
5	
7	
3	
9	
2	
11	
8	
7	
8	
5	
7	
7	
5	
9	
8	
5	
6	
9	
3	
6	
9	
2	
5	
11	
8	
3	
6	
8	
9	
7	
5	
5	
5	
13	
6	
9	
3	
4	
5	
6	
6	
2	
5	
13	
5	
3	
6	
7	
6	
3	
7	
11	
8	
6	
1	
7	
5	
6	
4	
3	
7	
1	
8	
5	
6	
4	
7	
6	
6	
3	
6	
11	
15	
3	
3	
8	
7	
5	
5	
8	
4	
3	
7	
6	
6	
6	
7	
7	
5	
5	
7	
5	
6	
3	
5	
5	
12	
4	
4	
9	
4	
6	
8	
4	
2	
11	
8	
5	
7	
7	
9	
1	
9	
7	
7	
4	
3	
14	
7	
6	
5	
7	
9	
2	
4	
7	
8	
7	
3	
5	
8	
5	
7	
5	
4	
4	
5	
2	
7	
9	
7	
8	
2	
8	
7	
8	
10	
4	
8	
5	
10	
7	
10	
6	
6	
11	
5	
6	
4	
9	
6	
2	
9	
8	
2	
8	
1	
6	
9	
7	
4	
5	
11	
4	
6	
3	
3	
10	
6	
5	
7	
6	
4	
5	
3	
9	
10	
4	
4	
4	
6	
7	
5	
7	
7	
7	
6	
2	
6	
6	
3	
7	
4	
2	
5	
6	
9	
10	
7	
11	
8	
3	
2	
5	
9	
4	
5	
6	
3	
4	
5	
9	
6	
8	
9	
2	
4	
10	
7	
6	
3	
5	
4	
8	
3	
7	
7	
6	
12	
1	
6	
4	
11	
7	
6	
7	
6	
9	
6	
3	
6	
6	
5	
5	
4	
4	
8	
1	
2	
8	
4	
3	
6	
5	
4	
10	
5	
5	
4	
9	
10	
9	
6	
9	
7	
3	
3	
0	
6	
3	
6	
4	
3	
7	
4	
4	
9	
4	
5	
7	
5	
12	
1	
9	
8	
7	
2	
4	
6	
6	
6	
4	
2	
3	
2	
2	
9	
9	
3	
5	
7	
4	
3	
7	
12	
5	
2	
4	
4	
7	
4	
4	
10	
4	
9	
1	
5	
5	
5	
5	
6	
5	
2	
5	
7	
1	
4	
6	
4	
8	
3	
4	
7	
6	
4	
6	
7	
4	
7	
7	
6	
2	
9	
3	
6	
2	
3	
3	
3	
3	
5	
4	
4	
7	
9	
2	
9	
4	
6	
4	
7	
3	
8	
10	
3	
4	
5	
5	
6	
5	
8	
7	
7	
5	
3	
8	
4	
5	
6	
2	
9	
10	
5	
6	
4	
4	
2	
4	
6	
2	
2	
6	
5	
5	
4	
5	
10	
4	
5	
5	
10	
1	
7	
7	
6	
1	
3	
5	
2	
8	
5	
8	
4	
3	
3	
8	
8	
5	
5	
8	
6	
2	
6	
3	
9	
6	
7	
6	
4	
4	
9	
5	
6	
6	
2	
6	
6	
4	
6	
5	
2	
3	
2	
6	
6	
2	
4	
6	
6	
9	
9	
6	
9	
7	
7	
3	
5	
2	
7	
7	
5	
7	
5	
6	
6	
7	
4	
7	
9	
5	
7	
5	
1	
9	
7	
3	
5	
2	
6	
10	
2	
6	
7	
8	
10	
3	
2	
4	
3	
3	
6	
5	
3	
4	
6	
4	
5	
5	
3	
4	
8	
8	
7	
5	
4	
5	
6	
4	
12	
4	
1	
7	
2	
4	
5	
3	
9	
1	
4	
8	
3	
4	
6	
3	
7	
6	
9	
5	
3	
4	
3	
6	
6	
5	
5	
5	
1	
5	
4	
3	
5	
4	
6	
5	
6	
8	
5	
5	
5	
5	
5	
5	
7	
5	
6	
1	
4	
8	
6	
5	
3	
6	
3	
4	
2	
6	
5	
6	
6	
4	
4	
9	
5	
6	
8	
4	
6	
9	
4	
3	
4	
7	
2	
3	
4	
8	
7	
6	
5	
9	
7	
5	
5	
5	
7	
7	
6	
3	
8	
5	
6	
2	
9	
5	
3	
2	
5	
5	
4	
3	
3	
5	
8	
10	
7	
4	
6	
5	
5	
5	
6	
7	
7	
5	
10	
4	
7	
5	
3	
1	
4	
4	
5	
7	
6	
6	
5	
6	
6	
3	
8	
5	
4	
6	
4	
6	
6	
4	
1	
9	
6	
4	
3	
8	
9	
5	
5	
4	
5	
3	
4	
5	
4	
5	
6	
4	
8	
6	
6	
5	
6	
11	
8	
6	
2	
3	
4	
8	
6	
4	
0	
7	
6	
3	
1	
4	
3	
3	
2	
9	
4	
7	
2	
3	
2	
4	
2	
3	
5	
11	
0	
6	
4	
2	
0	
7	
7	
2	
1	
9	
6	
4	
4	
6	
5	
5	
6	
4	
3	
5	
3	
4	
6	
3	
4	
5	
8	
4	
3	
9	
5	
4	
5	
8	
1	
7	
4	
8	
4	
1	
7	
5	
4	
5	
1	
3	
3	
3	
6	
3	
3	
3	
8	
7	
8	
7	
2	
6	
1	
7	
4	
8	
5	
2	
4	
1	
7	
4	
4	
4	
7	
4	
3	
4	
5	
1	
3	
9	
5	
2	
6	
4	
2	
4	
5	
6	
3	
5	
4	
3	
2	
6	
3	
3	
6	
4	
8	
3	
4	
2	
6	
3	
2	
4	
1	
4	
4	
11	
7	
6	
6	
3	
5	
7	
0	
5	
4	
3	
3	
8	
4	
1	
4	
5	
6	
3	
8	
2	
4	
9	
5	
10	
4	
5	
4	
2	
5	
5	
5	
4	
2	
2	
3	
3	
2	
7	
10	
8	
6	
5	
7	
7	
4	
3	
5	
3	
4	
7	
