#PicoHarp 300  Histogram Data			03/13/2023 04:04:11 PM
#channels per curve
15625
#display curve no.
0	
#memory block no.
0	
#ns/channel
0.1280	
#counts
3	
6	
7	
5	
5	
2	
3	
4	
4	
7	
5	
3	
6	
4	
1	
5	
3	
4	
8	
5	
7	
2	
1	
5	
5	
5	
3	
2	
2	
5	
4	
3	
4	
3	
3	
3	
4	
6	
4	
4	
5	
2	
5	
4	
2	
3	
5	
4	
7	
1	
1	
5	
4	
2	
2	
3	
3	
3	
3	
0	
1	
4	
6	
5	
2	
0	
6	
6	
3	
2	
2	
1	
5	
4	
3	
3	
2	
4	
4	
2	
6	
2	
5	
4	
3	
3	
2	
4	
4	
4	
12	
1	
4	
7	
2	
5	
5	
4	
3	
3	
3	
8	
4	
6	
2	
4	
2	
2	
5	
4	
7	
5	
4	
3	
2	
3	
5	
2	
1	
2	
4	
5	
6	
4	
1	
3	
5	
3	
4	
2	
3	
3	
1	
2	
2	
2	
1	
4	
3	
4	
4	
5	
3	
2	
2	
5	
3	
8	
4	
3	
4	
5	
5	
2	
4	
2	
4	
2	
3	
3	
3	
8	
2	
3	
2	
5	
5	
0	
2	
2	
2	
6	
1	
3	
5	
2	
4	
7	
7	
1	
4	
2	
4	
2	
4	
4	
7	
2	
2	
6	
3	
4	
3	
2	
7	
3	
2	
5	
4	
3	
1	
3	
3	
3	
3	
3	
3	
4	
4	
6	
0	
6	
5	
2	
5	
2	
2	
2	
3	
0	
6	
0	
7	
2	
5	
4	
8	
3	
2	
4	
3	
5	
5	
2	
2	
0	
4	
5	
4	
6	
10	
14	
23	
45	
121	
200	
358	
490	
585	
729	
825	
895	
926	
961	
982	
1000	
919	
973	
955	
948	
1000	
998	
918	
984	
945	
936	
890	
988	
963	
879	
958	
943	
901	
930	
897	
943	
892	
936	
953	
894	
893	
922	
933	
975	
880	
864	
946	
905	
871	
878	
889	
953	
976	
878	
832	
866	
868	
943	
882	
851	
869	
846	
924	
849	
860	
831	
870	
850	
865	
862	
870	
842	
850	
844	
845	
888	
865	
855	
853	
867	
837	
834	
823	
852	
833	
820	
870	
805	
813	
837	
783	
842	
787	
811	
774	
837	
809	
877	
829	
829	
790	
828	
852	
858	
771	
793	
779	
762	
838	
794	
801	
756	
800	
803	
795	
825	
829	
784	
756	
772	
798	
809	
816	
788	
795	
735	
750	
842	
850	
850	
794	
741	
785	
813	
775	
762	
768	
755	
742	
720	
757	
796	
789	
765	
764	
774	
774	
754	
758	
718	
739	
752	
725	
781	
750	
756	
701	
739	
748	
723	
747	
721	
720	
745	
747	
723	
706	
738	
725	
720	
729	
727	
716	
708	
746	
734	
775	
766	
748	
712	
705	
713	
696	
694	
717	
734	
757	
750	
687	
733	
741	
685	
743	
703	
644	
716	
658	
659	
685	
723	
756	
706	
651	
695	
685	
708	
650	
691	
661	
705	
683	
664	
740	
696	
728	
716	
691	
673	
681	
694	
739	
674	
657	
675	
677	
702	
722	
635	
634	
693	
671	
720	
624	
670	
660	
690	
655	
742	
657	
648	
669	
682	
673	
641	
655	
703	
664	
670	
690	
578	
672	
668	
639	
641	
670	
666	
673	
717	
668	
646	
672	
666	
646	
666	
653	
676	
625	
624	
638	
649	
607	
637	
646	
669	
680	
652	
676	
648	
606	
672	
662	
598	
627	
623	
671	
663	
587	
620	
634	
614	
639	
659	
615	
653	
639	
602	
618	
610	
629	
624	
596	
651	
662	
698	
618	
600	
643	
643	
625	
606	
619	
598	
614	
672	
605	
607	
585	
585	
594	
560	
577	
596	
616	
554	
569	
622	
590	
617	
664	
549	
578	
633	
605	
589	
581	
602	
598	
589	
588	
609	
564	
558	
552	
598	
589	
631	
570	
617	
564	
614	
558	
629	
595	
585	
624	
582	
578	
598	
546	
617	
599	
605	
597	
585	
565	
575	
570	
580	
593	
580	
551	
557	
586	
585	
641	
578	
551	
611	
628	
606	
504	
541	
548	
542	
585	
561	
582	
578	
527	
568	
559	
596	
548	
579	
587	
585	
560	
538	
569	
566	
563	
571	
590	
561	
556	
594	
564	
588	
527	
537	
582	
541	
548	
586	
591	
554	
559	
579	
488	
527	
563	
536	
536	
541	
537	
576	
572	
553	
518	
563	
541	
569	
561	
562	
564	
513	
559	
548	
541	
535	
569	
521	
509	
542	
550	
550	
566	
545	
521	
524	
519	
531	
556	
529	
516	
490	
518	
545	
545	
549	
508	
518	
546	
512	
533	
519	
507	
516	
525	
528	
503	
502	
513	
517	
544	
556	
495	
526	
493	
500	
513	
492	
511	
535	
541	
518	
493	
539	
513	
486	
513	
560	
489	
508	
498	
530	
506	
491	
501	
526	
534	
482	
520	
508	
448	
489	
487	
523	
483	
456	
506	
508	
514	
526	
514	
518	
514	
485	
520	
502	
523	
507	
523	
476	
491	
528	
492	
521	
485	
489	
509	
494	
466	
520	
523	
476	
484	
495	
467	
465	
440	
501	
466	
525	
478	
462	
504	
485	
456	
476	
502	
483	
472	
515	
447	
486	
510	
490	
496	
492	
504	
463	
482	
447	
508	
476	
469	
460	
476	
463	
440	
506	
456	
449	
487	
476	
471	
471	
488	
453	
489	
473	
434	
464	
497	
467	
476	
452	
474	
475	
483	
447	
477	
458	
458	
507	
436	
459	
443	
467	
449	
477	
459	
464	
425	
439	
524	
433	
471	
452	
417	
475	
435	
467	
485	
434	
436	
454	
432	
461	
480	
441	
459	
483	
397	
432	
470	
448	
469	
414	
457	
459	
433	
422	
458	
448	
421	
460	
489	
478	
450	
468	
436	
484	
471	
446	
434	
427	
490	
467	
462	
458	
461	
432	
476	
422	
438	
440	
440	
446	
420	
439	
444	
409	
453	
439	
464	
433	
457	
435	
457	
418	
445	
406	
453	
439	
413	
440	
425	
449	
466	
417	
449	
446	
406	
457	
415	
467	
401	
428	
432	
401	
424	
455	
412	
434	
395	
438	
457	
442	
419	
397	
440	
432	
410	
405	
448	
411	
417	
436	
426	
401	
423	
432	
454	
427	
430	
436	
478	
428	
426	
437	
419	
425	
377	
388	
433	
424	
379	
406	
398	
400	
393	
436	
394	
385	
456	
429	
386	
410	
419	
435	
429	
400	
387	
414	
404	
394	
408	
428	
414	
445	
398	
377	
417	
385	
371	
402	
441	
393	
416	
380	
429	
393	
370	
406	
382	
369	
388	
377	
426	
397	
424	
390	
389	
420	
360	
373	
405	
424	
394	
421	
424	
372	
396	
404	
396	
393	
390	
395	
382	
407	
409	
403	
356	
382	
387	
360	
384	
378	
385	
390	
446	
388	
354	
386	
385	
409	
363	
380	
391	
361	
386	
410	
344	
381	
395	
381	
381	
382	
400	
378	
395	
348	
410	
360	
378	
370	
394	
357	
393	
371	
391	
375	
378	
374	
397	
384	
382	
406	
375	
383	
393	
376	
417	
361	
381	
383	
379	
372	
403	
372	
407	
381	
348	
381	
393	
370	
380	
375	
320	
387	
365	
342	
371	
387	
354	
353	
364	
358	
387	
392	
350	
374	
377	
394	
376	
350	
377	
356	
363	
328	
364	
333	
343	
382	
354	
318	
363	
383	
354	
355	
357	
366	
358	
332	
398	
351	
349	
342	
375	
333	
393	
379	
362	
358	
340	
383	
386	
381	
392	
357	
352	
377	
361	
373	
362	
357	
384	
354	
336	
352	
347	
366	
359	
381	
353	
333	
322	
356	
360	
344	
340	
352	
378	
340	
367	
351	
336	
326	
343	
369	
375	
348	
365	
350	
336	
379	
336	
348	
363	
359	
301	
323	
330	
361	
372	
359	
361	
337	
358	
366	
358	
330	
330	
349	
354	
314	
372	
352	
363	
350	
360	
313	
360	
345	
340	
356	
338	
325	
351	
339	
357	
312	
350	
352	
373	
335	
335	
344	
327	
377	
314	
317	
368	
348	
339	
317	
312	
372	
351	
331	
326	
310	
354	
325	
324	
337	
343	
335	
323	
351	
328	
321	
337	
317	
342	
309	
335	
314	
327	
321	
312	
307	
306	
302	
338	
327	
323	
332	
345	
295	
334	
325	
357	
302	
319	
326	
323	
333	
317	
336	
328	
321	
333	
329	
324	
322	
316	
302	
308	
317	
328	
337	
331	
337	
323	
327	
316	
290	
323	
306	
305	
297	
319	
329	
296	
292	
318	
335	
345	
304	
314	
309	
299	
357	
327	
354	
323	
333	
322	
331	
321	
328	
286	
333	
310	
336	
336	
315	
307	
320	
304	
286	
308	
307	
356	
314	
293	
286	
324	
322	
310	
303	
299	
342	
268	
310	
310	
308	
313	
311	
313	
292	
316	
298	
312	
291	
297	
320	
316	
287	
283	
301	
319	
326	
314	
294	
317	
330	
293	
325	
336	
329	
291	
286	
280	
322	
304	
285	
318	
280	
297	
291	
299	
324	
298	
306	
317	
309	
313	
326	
302	
311	
292	
296	
277	
311	
290	
284	
304	
263	
292	
323	
297	
289	
244	
314	
305	
283	
301	
307	
286	
289	
290	
292	
300	
280	
299	
289	
307	
315	
292	
299	
302	
272	
277	
276	
275	
269	
274	
288	
283	
317	
297	
278	
312	
292	
279	
275	
291	
298	
260	
290	
299	
291	
275	
276	
306	
310	
278	
304	
264	
292	
345	
264	
267	
311	
305	
310	
324	
279	
343	
281	
304	
279	
299	
269	
302	
262	
274	
278	
297	
245	
287	
283	
294	
273	
273	
261	
263	
292	
264	
303	
280	
267	
303	
290	
274	
286	
291	
294	
278	
300	
285	
278	
270	
307	
284	
249	
281	
247	
247	
236	
288	
284	
259	
268	
293	
312	
301	
283	
265	
266	
289	
271	
272	
284	
281	
273	
288	
262	
272	
266	
261	
256	
265	
289	
243	
269	
274	
280	
270	
285	
290	
279	
270	
301	
299	
274	
283	
280	
264	
266	
279	
270	
268	
277	
269	
277	
260	
270	
261	
274	
276	
234	
285	
304	
288	
259	
242	
269	
237	
267	
232	
230	
271	
304	
249	
274	
285	
282	
230	
247	
302	
253	
275	
263	
266	
239	
249	
260	
261	
282	
260	
288	
237	
274	
277	
276	
253	
256	
269	
255	
264	
239	
260	
278	
241	
272	
244	
241	
258	
281	
256	
272	
268	
251	
264	
236	
250	
244	
245	
233	
260	
244	
257	
240	
267	
241	
260	
254	
230	
262	
253	
278	
219	
253	
241	
244	
243	
251	
225	
231	
239	
243	
264	
272	
236	
257	
269	
228	
216	
249	
255	
248	
253	
246	
255	
258	
273	
257	
253	
229	
243	
223	
244	
235	
269	
217	
240	
235	
270	
244	
256	
268	
241	
268	
280	
251	
230	
255	
248	
240	
269	
235	
289	
245	
261	
232	
223	
227	
227	
254	
252	
230	
257	
264	
240	
264	
246	
237	
245	
224	
246	
254	
264	
240	
226	
239	
240	
246	
248	
235	
249	
224	
244	
262	
230	
239	
240	
216	
262	
214	
243	
263	
226	
239	
247	
242	
246	
222	
257	
227	
228	
238	
242	
221	
242	
250	
252	
228	
229	
259	
215	
225	
239	
214	
254	
258	
252	
235	
243	
266	
209	
239	
239	
242	
230	
239	
216	
233	
217	
262	
232	
211	
227	
246	
219	
236	
211	
225	
200	
229	
244	
241	
232	
230	
202	
219	
204	
217	
233	
234	
231	
225	
218	
216	
230	
228	
228	
207	
204	
213	
251	
207	
252	
215	
231	
217	
222	
221	
230	
226	
229	
227	
220	
226	
232	
213	
212	
223	
231	
236	
224	
224	
212	
206	
238	
214	
230	
219	
232	
215	
239	
228	
202	
229	
230	
240	
222	
228	
205	
231	
204	
215	
245	
232	
219	
242	
233	
223	
202	
213	
238	
245	
215	
239	
221	
226	
219	
220	
205	
259	
222	
209	
212	
221	
223	
215	
213	
211	
186	
198	
216	
226	
200	
217	
223	
217	
207	
237	
236	
252	
223	
234	
193	
222	
196	
223	
226	
214	
216	
231	
240	
208	
211	
226	
217	
209	
211	
229	
209	
225	
189	
241	
237	
229	
210	
193	
199	
209	
224	
207	
221	
178	
213	
233	
222	
211	
222	
207	
205	
204	
192	
198	
205	
204	
188	
237	
210	
225	
202	
212	
208	
218	
213	
194	
223	
218	
211	
217	
206	
197	
173	
218	
200	
219	
210	
207	
201	
216	
200	
220	
212	
178	
219	
212	
201	
207	
230	
188	
182	
215	
218	
217	
230	
200	
207	
223	
207	
205	
196	
195	
228	
212	
193	
200	
208	
195	
201	
221	
191	
217	
219	
201	
196	
175	
199	
205	
200	
173	
203	
216	
182	
169	
172	
213	
209	
171	
204	
202	
220	
239	
196	
208	
205	
219	
202	
220	
200	
197	
189	
175	
214	
207	
193	
214	
209	
174	
206	
194	
195	
195	
189	
186	
213	
208	
198	
205	
208	
176	
202	
194	
188	
195	
190	
189	
204	
203	
186	
211	
195	
169	
179	
174	
221	
195	
203	
193	
200	
207	
196	
190	
182	
202	
197	
196	
200	
189	
189	
203	
204	
213	
189	
210	
187	
207	
188	
157	
208	
200	
216	
195	
199	
190	
177	
193	
199	
180	
193	
198	
194	
181	
181	
180	
194	
182	
182	
188	
204	
182	
194	
205	
184	
170	
183	
195	
197	
156	
182	
194	
181	
192	
194	
182	
199	
199	
198	
198	
194	
195	
160	
185	
185	
179	
203	
209	
182	
194	
189	
175	
182	
171	
191	
198	
193	
206	
179	
178	
183	
160	
207	
196	
204	
173	
193	
179	
185	
160	
176	
161	
172	
162	
169	
189	
182	
193	
199	
174	
162	
188	
164	
202	
172	
192	
200	
196	
182	
183	
162	
206	
181	
165	
204	
167	
178	
177	
158	
179	
198	
170	
195	
177	
181	
182	
199	
175	
151	
157	
150	
187	
163	
164	
175	
172	
196	
155	
169	
184	
177	
176	
190	
163	
175	
181	
171	
186	
195	
189	
162	
171	
166	
182	
158	
167	
161	
194	
177	
191	
152	
159	
171	
197	
173	
160	
184	
158	
158	
178	
180	
201	
157	
174	
160	
188	
172	
156	
160	
173	
199	
173	
177	
157	
156	
179	
179	
142	
175	
171	
169	
180	
157	
166	
160	
154	
146	
163	
168	
151	
182	
179	
180	
164	
174	
151	
171	
171	
186	
158	
170	
167	
179	
181	
181	
166	
172	
167	
154	
160	
166	
150	
161	
153	
182	
152	
179	
143	
165	
175	
163	
160	
165	
156	
183	
179	
170	
161	
152	
175	
165	
160	
193	
167	
155	
182	
170	
157	
183	
220	
165	
178	
163	
182	
154	
156	
163	
160	
148	
175	
162	
173	
169	
152	
171	
177	
146	
155	
163	
179	
151	
171	
189	
160	
164	
161	
166	
162	
168	
177	
167	
182	
171	
170	
146	
186	
155	
159	
145	
141	
169	
171	
153	
167	
148	
175	
176	
183	
167	
163	
178	
168	
129	
183	
159	
169	
169	
165	
176	
135	
149	
159	
136	
135	
156	
151	
154	
168	
163	
171	
161	
160	
163	
140	
186	
164	
173	
171	
174	
152	
172	
147	
177	
160	
128	
172	
151	
162	
160	
160	
150	
179	
150	
148	
160	
171	
163	
166	
147	
167	
167	
172	
161	
148	
174	
162	
160	
163	
167	
142	
143	
177	
149	
137	
158	
150	
149	
132	
166	
158	
144	
157	
146	
153	
150	
144	
146	
151	
163	
157	
146	
147	
135	
151	
179	
141	
152	
176	
158	
153	
134	
152	
150	
157	
157	
159	
174	
166	
161	
151	
122	
141	
178	
152	
156	
145	
157	
174	
123	
130	
187	
138	
161	
125	
152	
148	
148	
150	
146	
143	
185	
145	
154	
182	
155	
157	
168	
153	
137	
147	
141	
176	
149	
135	
158	
157	
131	
149	
169	
137	
140	
145	
133	
164	
142	
172	
143	
137	
133	
164	
139	
152	
152	
144	
144	
142	
136	
151	
154	
158	
149	
139	
127	
148	
152	
151	
161	
128	
131	
153	
139	
135	
134	
133	
157	
149	
145	
153	
146	
145	
129	
161	
162	
154	
127	
155	
132	
145	
139	
146	
150	
163	
150	
160	
148	
132	
130	
149	
149	
150	
141	
152	
147	
144	
155	
152	
138	
132	
150	
130	
156	
130	
127	
146	
136	
151	
125	
138	
153	
128	
147	
140	
153	
143	
146	
121	
141	
145	
125	
139	
130	
142	
146	
133	
138	
138	
139	
151	
120	
141	
149	
129	
146	
142	
143	
166	
144	
128	
134	
121	
158	
164	
109	
155	
135	
131	
125	
136	
146	
149	
138	
157	
127	
125	
132	
132	
144	
140	
142	
111	
133	
148	
162	
135	
146	
132	
138	
122	
144	
132	
137	
137	
146	
151	
146	
124	
128	
138	
148	
134	
124	
116	
144	
150	
133	
145	
143	
127	
123	
133	
143	
134	
155	
135	
131	
152	
145	
139	
133	
129	
128	
143	
143	
139	
144	
137	
153	
126	
149	
119	
148	
133	
141	
146	
140	
146	
132	
115	
127	
142	
116	
131	
116	
140	
130	
139	
128	
124	
132	
138	
128	
131	
142	
136	
113	
130	
115	
123	
125	
127	
142	
106	
125	
146	
127	
145	
149	
150	
146	
114	
140	
137	
130	
123	
108	
132	
122	
142	
128	
123	
141	
130	
120	
133	
139	
130	
128	
138	
136	
134	
140	
115	
129	
119	
122	
119	
152	
123	
119	
131	
128	
118	
115	
124	
132	
139	
139	
126	
122	
136	
139	
103	
135	
142	
138	
122	
125	
130	
144	
141	
144	
127	
126	
107	
149	
107	
104	
118	
132	
119	
129	
138	
149	
139	
134	
119	
145	
135	
122	
129	
126	
106	
139	
116	
119	
133	
120	
119	
136	
130	
121	
125	
130	
114	
135	
117	
123	
126	
112	
130	
106	
111	
130	
127	
105	
129	
123	
124	
110	
142	
110	
128	
113	
130	
117	
112	
133	
135	
138	
112	
125	
115	
106	
138	
129	
123	
116	
123	
118	
144	
145	
98	
119	
123	
114	
117	
127	
116	
139	
119	
121	
117	
146	
146	
138	
107	
122	
105	
128	
114	
116	
130	
110	
127	
132	
119	
149	
118	
107	
125	
116	
112	
142	
114	
110	
110	
129	
128	
128	
96	
119	
114	
129	
122	
141	
120	
121	
113	
116	
132	
108	
104	
132	
117	
115	
124	
127	
105	
103	
144	
116	
118	
112	
115	
101	
120	
100	
112	
123	
117	
99	
121	
130	
118	
114	
122	
101	
114	
98	
114	
109	
98	
130	
125	
99	
124	
128	
126	
113	
115	
107	
99	
129	
96	
121	
121	
113	
118	
116	
121	
113	
117	
122	
106	
112	
92	
115	
104	
112	
116	
111	
115	
118	
101	
127	
101	
140	
86	
129	
118	
78	
133	
105	
104	
124	
101	
115	
132	
119	
125	
130	
101	
105	
103	
117	
104	
105	
114	
96	
140	
96	
103	
109	
103	
113	
98	
123	
115	
95	
112	
116	
110	
107	
114	
112	
89	
125	
123	
94	
114	
106	
128	
102	
108	
95	
106	
93	
103	
92	
117	
114	
105	
90	
104	
113	
117	
92	
107	
116	
106	
108	
96	
116	
119	
105	
112	
124	
104	
96	
113	
107	
120	
108	
100	
114	
115	
90	
129	
113	
122	
96	
91	
99	
121	
106	
102	
114	
108	
102	
129	
116	
126	
99	
92	
114	
101	
110	
130	
109	
120	
99	
95	
110	
101	
110	
98	
110	
110	
111	
101	
117	
107	
103	
78	
91	
119	
109	
108	
89	
121	
113	
111	
94	
113	
108	
88	
106	
135	
108	
108	
87	
104	
95	
102	
123	
93	
90	
109	
108	
106	
106	
96	
103	
118	
92	
110	
101	
107	
101	
106	
115	
94	
107	
109	
108	
94	
113	
106	
95	
114	
108	
93	
97	
90	
100	
100	
100	
105	
95	
110	
101	
105	
118	
97	
101	
115	
102	
96	
108	
88	
138	
93	
104	
112	
87	
102	
115	
100	
128	
122	
103	
111	
96	
103	
108	
101	
106	
82	
112	
99	
102	
105	
119	
103	
96	
93	
102	
98	
100	
100	
112	
101	
113	
115	
105	
108	
103	
90	
109	
118	
111	
90	
89	
114	
101	
101	
105	
101	
117	
102	
103	
108	
103	
109	
101	
103	
89	
96	
91	
113	
95	
99	
116	
90	
112	
98	
106	
88	
92	
88	
103	
94	
106	
96	
89	
86	
98	
93	
96	
106	
102	
99	
83	
112	
104	
100	
99	
106	
93	
111	
114	
103	
83	
114	
96	
117	
98	
105	
93	
91	
85	
87	
83	
103	
108	
87	
91	
102	
120	
84	
91	
93	
91	
104	
93	
85	
98	
83	
101	
98	
85	
97	
105	
93	
99	
94	
110	
112	
73	
100	
95	
101	
106	
97	
99	
96	
103	
89	
87	
107	
86	
97	
95	
95	
106	
106	
97	
116	
91	
114	
89	
94	
89	
105	
87	
80	
103	
107	
91	
87	
89	
116	
90	
95	
84	
102	
87	
79	
114	
95	
103	
89	
83	
81	
83	
88	
116	
100	
93	
95	
77	
87	
85	
84	
86	
81	
85	
90	
85	
95	
92	
91	
90	
95	
94	
112	
82	
90	
97	
83	
93	
94	
85	
82	
89	
106	
111	
90	
104	
77	
87	
107	
101	
106	
103	
94	
88	
104	
82	
86	
88	
76	
86	
83	
92	
94	
98	
99	
84	
79	
86	
94	
90	
101	
98	
83	
104	
76	
96	
89	
100	
109	
90	
91	
74	
80	
85	
90	
98	
93	
87	
64	
98	
91	
94	
72	
116	
98	
83	
86	
74	
82	
99	
90	
70	
95	
84	
70	
106	
81	
88	
100	
81	
95	
84	
73	
99	
87	
83	
91	
88	
88	
113	
90	
93	
73	
86	
75	
84	
91	
90	
82	
98	
89	
96	
90	
76	
83	
97	
94	
105	
72	
84	
84	
81	
76	
79	
85	
77	
101	
87	
94	
98	
75	
114	
87	
89	
92	
89	
103	
96	
80	
85	
86	
81	
98	
97	
99	
93	
79	
77	
79	
98	
92	
83	
77	
96	
86	
79	
105	
100	
92	
100	
97	
101	
85	
88	
82	
82	
73	
87	
94	
98	
69	
88	
88	
87	
70	
85	
76	
84	
79	
68	
86	
107	
83	
67	
75	
79	
90	
96	
78	
83	
77	
92	
79	
95	
82	
92	
87	
103	
74	
76	
80	
73	
83	
75	
91	
106	
101	
82	
82	
70	
70	
62	
79	
78	
93	
77	
82	
67	
77	
89	
89	
106	
109	
88	
95	
92	
83	
74	
71	
77	
65	
91	
105	
85	
70	
92	
80	
74	
99	
86	
85	
86	
98	
74	
88	
94	
81	
87	
73	
85	
84	
94	
71	
91	
70	
74	
81	
81	
80	
78	
63	
87	
88	
84	
75	
72	
90	
82	
89	
80	
69	
96	
76	
81	
89	
90	
81	
76	
86	
79	
64	
68	
79	
94	
97	
82	
81	
80	
76	
69	
77	
83	
81	
78	
80	
88	
76	
73	
84	
72	
79	
74	
95	
84	
58	
67	
90	
89	
83	
74	
78	
86	
82	
66	
94	
78	
90	
71	
81	
87	
87	
90	
82	
76	
74	
90	
91	
80	
78	
80	
80	
78	
85	
80	
79	
88	
83	
74	
81	
95	
82	
65	
110	
86	
66	
66	
101	
92	
76	
76	
88	
72	
78	
73	
69	
72	
81	
69	
65	
72	
75	
87	
77	
82	
65	
67	
76	
80	
79	
76	
72	
74	
80	
88	
73	
90	
69	
79	
93	
67	
83	
92	
90	
75	
73	
76	
73	
76	
68	
76	
70	
70	
86	
69	
82	
81	
82	
94	
90	
71	
65	
80	
96	
79	
77	
67	
74	
67	
71	
82	
82	
76	
79	
75	
77	
66	
84	
70	
62	
88	
77	
75	
79	
88	
77	
80	
85	
61	
80	
70	
72	
83	
63	
81	
75	
73	
91	
71	
85	
65	
77	
48	
81	
75	
61	
54	
85	
82	
83	
76	
68	
62	
77	
75	
69	
88	
65	
73	
72	
78	
72	
64	
71	
62	
72	
79	
87	
68	
85	
71	
57	
67	
71	
63	
73	
72	
66	
72	
65	
70	
73	
68	
87	
73	
68	
66	
81	
50	
88	
72	
87	
70	
66	
68	
76	
58	
68	
88	
78	
84	
82	
70	
63	
62	
67	
62	
59	
80	
64	
74	
78	
65	
71	
75	
71	
69	
67	
82	
67	
67	
77	
79	
78	
71	
71	
65	
78	
60	
72	
65	
72	
69	
65	
53	
73	
71	
62	
74	
69	
63	
76	
81	
81	
71	
63	
83	
75	
82	
58	
83	
65	
78	
65	
68	
69	
61	
50	
66	
70	
52	
62	
73	
51	
69	
74	
52	
82	
71	
64	
61	
84	
76	
64	
79	
70	
75	
72	
70	
73	
76	
57	
53	
62	
66	
68	
73	
76	
64	
71	
58	
75	
69	
62	
71	
59	
91	
71	
65	
75	
80	
68	
89	
54	
64	
58	
65	
74	
62	
65	
63	
72	
73	
71	
68	
81	
73	
53	
71	
62	
76	
75	
64	
69	
64	
70	
72	
65	
58	
66	
73	
57	
62	
74	
66	
65	
62	
80	
61	
76	
60	
68	
83	
62	
57	
72	
63	
66	
77	
76	
63	
63	
65	
81	
71	
89	
56	
62	
63	
63	
75	
64	
70	
54	
67	
70	
73	
57	
59	
69	
79	
69	
78	
63	
80	
68	
71	
62	
73	
45	
59	
67	
67	
78	
67	
70	
67	
75	
65	
67	
64	
61	
75	
57	
65	
64	
63	
76	
67	
59	
62	
49	
68	
78	
55	
55	
69	
72	
71	
70	
66	
66	
59	
59	
59	
55	
50	
55	
59	
59	
82	
53	
68	
55	
59	
59	
75	
83	
50	
65	
71	
85	
50	
65	
72	
71	
72	
61	
59	
62	
62	
68	
61	
70	
59	
62	
68	
80	
67	
67	
77	
73	
78	
56	
58	
69	
55	
68	
65	
57	
72	
67	
58	
81	
46	
56	
46	
72	
65	
68	
66	
54	
64	
53	
63	
64	
57	
67	
55	
54	
51	
64	
74	
69	
63	
61	
54	
63	
63	
70	
56	
69	
59	
74	
60	
60	
63	
70	
75	
60	
76	
55	
68	
67	
61	
63	
69	
69	
64	
68	
62	
69	
71	
66	
56	
63	
61	
63	
62	
70	
63	
77	
65	
71	
53	
47	
61	
51	
73	
51	
68	
64	
73	
54	
73	
58	
57	
61	
62	
73	
61	
56	
54	
56	
61	
76	
71	
76	
51	
59	
61	
53	
66	
54	
54	
69	
73	
59	
45	
59	
60	
63	
69	
65	
65	
36	
63	
62	
62	
67	
67	
70	
66	
71	
58	
53	
53	
53	
63	
53	
60	
59	
72	
60	
48	
65	
65	
71	
71	
63	
47	
58	
66	
56	
59	
58	
58	
55	
70	
61	
57	
44	
55	
66	
62	
67	
61	
66	
48	
40	
59	
75	
58	
46	
59	
69	
60	
59	
56	
68	
65	
56	
73	
55	
56	
49	
56	
57	
58	
53	
64	
59	
56	
48	
57	
57	
54	
54	
69	
54	
75	
67	
60	
53	
48	
49	
51	
44	
51	
62	
54	
55	
51	
59	
53	
64	
52	
59	
64	
64	
60	
58	
62	
51	
66	
60	
64	
53	
60	
47	
45	
54	
46	
53	
47	
68	
58	
68	
70	
59	
62	
41	
53	
68	
56	
50	
76	
53	
52	
48	
57	
50	
57	
54	
70	
55	
59	
61	
52	
42	
52	
51	
54	
59	
49	
68	
55	
47	
42	
61	
45	
53	
63	
57	
60	
56	
66	
69	
60	
47	
51	
50	
53	
49	
66	
68	
48	
58	
77	
58	
50	
61	
55	
45	
73	
58	
67	
46	
59	
42	
57	
49	
52	
47	
60	
60	
40	
54	
57	
53	
64	
55	
50	
54	
58	
60	
49	
61	
47	
46	
52	
48	
64	
70	
59	
48	
59	
54	
55	
55	
59	
41	
58	
43	
67	
59	
46	
67	
56	
54	
55	
57	
57	
53	
49	
60	
54	
53	
53	
51	
46	
52	
58	
47	
66	
57	
53	
53	
63	
54	
56	
57	
55	
64	
55	
55	
62	
53	
54	
53	
65	
57	
46	
53	
47	
65	
57	
57	
63	
62	
64	
52	
68	
56	
57	
38	
55	
59	
63	
65	
59	
48	
56	
54	
45	
60	
48	
53	
36	
63	
59	
52	
65	
42	
56	
49	
61	
51	
52	
50	
41	
53	
54	
56	
46	
65	
50	
55	
53	
62	
50	
63	
53	
58	
42	
57	
50	
49	
51	
54	
56	
51	
56	
51	
48	
52	
58	
46	
45	
50	
53	
46	
40	
57	
63	
66	
64	
62	
59	
51	
63	
42	
50	
51	
40	
62	
62	
52	
50	
44	
57	
53	
48	
44	
47	
45	
51	
56	
57	
55	
57	
53	
57	
58	
55	
41	
60	
51	
50	
50	
59	
46	
45	
45	
34	
57	
42	
37	
52	
53	
57	
48	
49	
63	
54	
52	
44	
47	
42	
39	
48	
55	
42	
52	
50	
49	
48	
38	
61	
55	
48	
55	
56	
48	
41	
51	
42	
50	
61	
53	
49	
48	
46	
55	
70	
57	
47	
58	
59	
56	
49	
54	
46	
50	
64	
49	
62	
49	
58	
52	
50	
53	
51	
36	
54	
44	
37	
54	
45	
49	
41	
54	
48	
45	
47	
49	
57	
51	
49	
46	
59	
49	
43	
30	
43	
59	
47	
59	
50	
56	
39	
60	
44	
53	
44	
40	
49	
50	
40	
65	
54	
43	
54	
45	
48	
54	
53	
32	
48	
52	
36	
41	
50	
55	
49	
43	
49	
54	
45	
39	
44	
52	
53	
63	
61	
55	
55	
55	
40	
49	
42	
45	
53	
44	
37	
43	
44	
44	
50	
49	
41	
41	
36	
50	
58	
43	
30	
44	
46	
56	
57	
44	
48	
53	
51	
39	
41	
53	
41	
51	
36	
57	
58	
41	
39	
47	
36	
41	
53	
42	
49	
43	
42	
39	
43	
51	
41	
52	
42	
47	
51	
53	
55	
48	
53	
52	
39	
51	
47	
55	
33	
50	
52	
46	
52	
63	
53	
45	
41	
46	
53	
35	
52	
48	
49	
51	
52	
51	
50	
51	
39	
43	
49	
41	
52	
44	
51	
46	
43	
40	
43	
50	
38	
38	
50	
42	
47	
46	
51	
46	
55	
38	
51	
35	
53	
47	
47	
47	
55	
29	
52	
50	
45	
38	
51	
41	
52	
57	
42	
30	
42	
34	
42	
46	
51	
48	
41	
51	
48	
41	
45	
44	
59	
43	
37	
38	
42	
42	
49	
45	
39	
48	
45	
35	
42	
42	
40	
48	
44	
47	
60	
55	
49	
43	
47	
39	
42	
40	
47	
48	
37	
41	
60	
42	
34	
55	
53	
52	
46	
53	
49	
42	
45	
46	
37	
49	
46	
42	
49	
41	
42	
47	
49	
46	
53	
48	
51	
39	
44	
39	
44	
57	
46	
45	
29	
29	
49	
42	
37	
46	
44	
47	
36	
41	
34	
36	
47	
52	
51	
35	
32	
44	
34	
43	
39	
54	
33	
37	
54	
36	
36	
33	
48	
48	
45	
37	
42	
40	
41	
33	
46	
51	
46	
52	
47	
41	
39	
40	
43	
50	
61	
46	
43	
32	
36	
50	
48	
38	
41	
41	
36	
48	
44	
46	
33	
51	
40	
55	
56	
41	
40	
40	
41	
44	
51	
49	
38	
47	
54	
37	
48	
36	
49	
37	
46	
42	
33	
40	
40	
42	
42	
40	
48	
43	
47	
49	
39	
37	
45	
32	
39	
42	
39	
40	
40	
39	
41	
51	
35	
45	
41	
41	
53	
41	
58	
38	
43	
48	
45	
39	
40	
42	
38	
39	
37	
44	
49	
36	
43	
44	
38	
46	
35	
39	
40	
37	
33	
43	
46	
38	
49	
43	
46	
52	
44	
50	
38	
45	
37	
41	
41	
36	
48	
42	
32	
43	
53	
35	
40	
33	
38	
44	
38	
35	
27	
38	
40	
35	
47	
32	
32	
38	
37	
55	
36	
48	
49	
39	
44	
39	
41	
49	
24	
41	
41	
34	
37	
49	
32	
42	
35	
40	
46	
44	
35	
41	
35	
39	
41	
38	
43	
46	
36	
45	
46	
36	
39	
35	
37	
42	
42	
46	
37	
45	
45	
43	
34	
43	
35	
41	
44	
37	
39	
39	
40	
43	
49	
36	
37	
55	
33	
26	
38	
45	
41	
43	
38	
39	
35	
35	
26	
43	
31	
24	
43	
41	
39	
38	
35	
43	
40	
33	
44	
40	
39	
39	
38	
45	
43	
40	
42	
38	
45	
45	
37	
35	
33	
33	
33	
45	
32	
38	
46	
39	
39	
34	
47	
39	
36	
33	
38	
42	
47	
30	
38	
37	
44	
39	
42	
44	
33	
38	
34	
51	
43	
33	
28	
52	
43	
37	
34	
44	
34	
43	
31	
44	
45	
48	
41	
45	
43	
47	
42	
45	
32	
35	
34	
37	
47	
37	
43	
42	
41	
28	
29	
35	
43	
35	
27	
46	
38	
49	
31	
44	
40	
45	
36	
33	
42	
48	
34	
45	
46	
35	
36	
28	
39	
38	
30	
42	
38	
41	
33	
46	
45	
38	
42	
37	
34	
34	
39	
34	
35	
38	
36	
32	
32	
42	
28	
28	
32	
36	
33	
27	
39	
41	
34	
32	
29	
41	
32	
38	
34	
48	
36	
43	
40	
36	
20	
37	
38	
33	
28	
30	
40	
39	
30	
33	
26	
40	
31	
26	
35	
40	
27	
32	
46	
40	
45	
32	
34	
34	
37	
39	
45	
30	
41	
28	
31	
42	
35	
44	
44	
27	
34	
33	
40	
32	
41	
35	
23	
44	
36	
34	
34	
34	
34	
38	
46	
37	
33	
43	
45	
49	
38	
53	
44	
34	
31	
30	
40	
29	
40	
36	
44	
33	
34	
38	
39	
48	
36	
26	
33	
42	
35	
49	
36	
38	
49	
34	
31	
46	
33	
32	
36	
37	
34	
43	
33	
40	
32	
29	
32	
42	
34	
24	
41	
28	
37	
30	
36	
36	
31	
41	
32	
37	
36	
34	
39	
30	
43	
27	
43	
36	
34	
32	
43	
31	
43	
27	
25	
27	
37	
46	
29	
37	
33	
34	
39	
33	
33	
35	
32	
41	
34	
25	
30	
35	
34	
34	
36	
29	
35	
28	
31	
37	
36	
26	
28	
45	
33	
35	
35	
36	
28	
35	
39	
40	
42	
35	
39	
51	
27	
31	
48	
31	
40	
48	
37	
30	
39	
36	
32	
42	
28	
19	
33	
33	
32	
34	
33	
23	
32	
45	
40	
28	
29	
38	
40	
39	
33	
27	
30	
29	
48	
30	
32	
45	
40	
30	
33	
26	
41	
31	
30	
32	
23	
28	
27	
45	
30	
30	
34	
38	
38	
29	
30	
32	
29	
30	
23	
39	
40	
33	
37	
42	
39	
35	
31	
37	
28	
38	
36	
34	
27	
28	
33	
35	
34	
41	
29	
36	
39	
21	
39	
48	
33	
32	
31	
44	
30	
28	
36	
39	
24	
37	
31	
40	
33	
31	
29	
34	
36	
45	
38	
32	
23	
35	
24	
30	
39	
26	
31	
27	
32	
30	
41	
29	
30	
32	
34	
25	
36	
34	
41	
40	
35	
37	
32	
42	
38	
33	
35	
37	
23	
28	
36	
42	
29	
41	
30	
31	
27	
38	
35	
30	
32	
31	
29	
35	
26	
23	
30	
28	
37	
37	
40	
35	
31	
30	
34	
26	
29	
29	
29	
33	
31	
25	
25	
33	
26	
25	
26	
29	
19	
27	
23	
35	
35	
27	
28	
36	
29	
42	
26	
37	
28	
30	
26	
34	
29	
30	
35	
31	
25	
22	
29	
24	
31	
34	
35	
29	
27	
28	
25	
37	
35	
27	
32	
30	
31	
28	
28	
20	
41	
30	
41	
37	
33	
41	
38	
32	
39	
34	
36	
35	
27	
30	
30	
32	
34	
27	
26	
34	
43	
29	
45	
30	
29	
35	
28	
30	
38	
25	
34	
37	
27	
30	
32	
43	
34	
33	
34	
38	
33	
33	
35	
32	
36	
27	
27	
30	
32	
40	
38	
32	
32	
38	
44	
30	
26	
27	
47	
36	
25	
37	
27	
37	
39	
37	
29	
24	
34	
31	
26	
30	
39	
19	
44	
30	
33	
25	
24	
28	
28	
30	
32	
25	
30	
30	
42	
20	
36	
41	
29	
31	
33	
18	
30	
34	
34	
34	
19	
27	
36	
38	
33	
26	
23	
33	
33	
26	
28	
34	
18	
36	
31	
30	
33	
26	
21	
31	
33	
36	
32	
37	
38	
20	
17	
23	
26	
34	
24	
35	
22	
37	
29	
35	
33	
24	
22	
29	
31	
36	
32	
39	
42	
27	
28	
34	
42	
33	
28	
33	
24	
20	
29	
30	
29	
28	
36	
41	
27	
24	
32	
24	
32	
28	
33	
37	
25	
41	
27	
40	
44	
22	
21	
33	
40	
30	
26	
23	
34	
31	
19	
26	
35	
37	
30	
24	
27	
31	
35	
38	
18	
24	
42	
40	
42	
36	
32	
35	
33	
24	
20	
21	
26	
25	
30	
37	
26	
26	
32	
22	
18	
27	
32	
28	
36	
28	
30	
25	
29	
34	
23	
37	
22	
33	
28	
27	
26	
23	
32	
30	
23	
31	
31	
30	
27	
28	
29	
22	
35	
31	
31	
24	
22	
35	
23	
35	
24	
23	
28	
36	
25	
19	
22	
38	
32	
27	
22	
17	
39	
26	
26	
22	
27	
43	
20	
20	
33	
36	
28	
23	
24	
33	
30	
31	
28	
35	
33	
24	
41	
25	
29	
25	
35	
24	
32	
36	
34	
32	
25	
25	
31	
29	
25	
32	
23	
26	
30	
29	
33	
30	
31	
19	
20	
30	
29	
32	
19	
38	
33	
27	
29	
22	
37	
34	
22	
22	
27	
27	
35	
25	
26	
22	
27	
27	
19	
26	
25	
35	
26	
35	
22	
30	
23	
27	
27	
18	
35	
32	
34	
22	
25	
26	
31	
18	
33	
25	
27	
32	
26	
31	
22	
30	
28	
28	
28	
36	
16	
27	
24	
24	
27	
20	
26	
28	
30	
32	
33	
23	
27	
35	
28	
31	
40	
28	
26	
26	
30	
35	
30	
25	
32	
24	
34	
36	
26	
26	
23	
25	
20	
18	
21	
37	
31	
26	
25	
32	
26	
32	
30	
26	
19	
25	
32	
31	
27	
22	
25	
23	
27	
23	
23	
24	
30	
24	
31	
27	
29	
30	
35	
17	
30	
35	
29	
25	
22	
26	
31	
22	
31	
29	
26	
29	
18	
37	
26	
32	
34	
34	
28	
29	
23	
34	
26	
23	
31	
37	
20	
34	
21	
27	
22	
20	
20	
34	
23	
26	
26	
29	
18	
28	
28	
30	
18	
32	
34	
25	
29	
19	
29	
27	
21	
28	
27	
26	
37	
24	
37	
31	
24	
24	
27	
30	
25	
21	
26	
25	
33	
30	
17	
27	
32	
44	
23	
12	
28	
23	
28	
29	
32	
29	
24	
22	
21	
24	
26	
28	
31	
28	
28	
18	
23	
30	
28	
20	
29	
26	
27	
27	
31	
30	
24	
21	
32	
26	
38	
24	
27	
16	
28	
19	
29	
23	
23	
22	
24	
25	
28	
32	
31	
27	
16	
29	
40	
33	
21	
23	
29	
24	
22	
31	
28	
14	
38	
25	
22	
15	
34	
12	
29	
24	
21	
26	
24	
19	
24	
28	
21	
30	
16	
25	
25	
27	
24	
30	
20	
19	
22	
27	
32	
24	
31	
30	
22	
28	
30	
23	
30	
23	
25	
26	
28	
21	
30	
19	
21	
32	
24	
26	
27	
26	
28	
27	
22	
22	
22	
18	
25	
29	
30	
17	
18	
21	
25	
16	
25	
25	
32	
16	
14	
32	
24	
19	
21	
34	
23	
20	
28	
37	
27	
37	
28	
27	
23	
32	
23	
25	
33	
26	
29	
27	
14	
22	
14	
28	
20	
28	
25	
18	
30	
18	
26	
16	
27	
20	
26	
29	
31	
19	
30	
28	
32	
26	
33	
24	
26	
29	
25	
30	
20	
27	
17	
25	
29	
26	
23	
27	
24	
39	
25	
26	
14	
28	
26	
18	
20	
19	
29	
20	
26	
34	
23	
25	
21	
31	
22	
18	
28	
28	
22	
26	
28	
17	
22	
19	
24	
26	
17	
23	
18	
22	
15	
25	
35	
24	
24	
21	
25	
25	
24	
22	
32	
14	
27	
23	
23	
26	
19	
28	
29	
23	
27	
22	
22	
27	
19	
22	
26	
28	
26	
28	
26	
26	
28	
17	
29	
18	
16	
20	
15	
19	
19	
26	
19	
20	
22	
17	
30	
31	
32	
30	
30	
28	
14	
18	
18	
24	
24	
27	
21	
16	
28	
19	
21	
30	
20	
17	
17	
22	
22	
20	
21	
24	
29	
22	
38	
26	
25	
31	
25	
14	
27	
25	
30	
21	
19	
17	
24	
28	
20	
20	
22	
23	
25	
24	
23	
21	
21	
17	
20	
34	
17	
20	
21	
24	
19	
20	
30	
18	
23	
28	
23	
26	
29	
20	
16	
26	
23	
23	
31	
22	
31	
26	
28	
30	
23	
25	
27	
18	
23	
17	
22	
32	
38	
19	
25	
28	
31	
23	
36	
19	
21	
22	
27	
26	
27	
16	
23	
23	
23	
16	
23	
23	
21	
19	
17	
28	
28	
29	
21	
29	
20	
29	
22	
24	
30	
18	
30	
20	
21	
23	
28	
16	
12	
32	
12	
18	
19	
23	
26	
22	
25	
28	
16	
15	
13	
27	
26	
16	
27	
21	
23	
20	
20	
24	
16	
29	
25	
18	
15	
26	
18	
20	
22	
21	
31	
22	
17	
19	
27	
31	
20	
16	
26	
22	
26	
26	
30	
21	
29	
25	
17	
18	
17	
24	
16	
24	
15	
27	
14	
18	
14	
22	
22	
24	
24	
22	
20	
21	
25	
17	
20	
15	
21	
26	
16	
29	
17	
23	
28	
22	
31	
18	
16	
31	
25	
20	
27	
24	
20	
22	
23	
24	
23	
19	
24	
29	
16	
24	
26	
24	
25	
22	
15	
27	
19	
23	
25	
24	
18	
19	
19	
25	
13	
17	
20	
24	
13	
34	
25	
21	
21	
17	
16	
20	
20	
16	
15	
26	
28	
17	
19	
22	
16	
13	
21	
15	
25	
17	
27	
21	
25	
21	
14	
19	
19	
22	
14	
17	
11	
26	
14	
16	
28	
20	
17	
22	
26	
17	
16	
25	
22	
21	
18	
16	
31	
24	
25	
21	
23	
16	
20	
20	
22	
20	
18	
24	
27	
22	
17	
16	
21	
18	
25	
20	
23	
19	
26	
17	
16	
29	
18	
13	
26	
24	
21	
19	
21	
23	
18	
24	
19	
23	
17	
15	
23	
20	
22	
21	
23	
14	
18	
16	
30	
15	
25	
18	
31	
31	
19	
23	
22	
17	
20	
18	
26	
23	
26	
14	
14	
24	
15	
11	
19	
24	
13	
27	
27	
17	
23	
21	
25	
25	
18	
16	
15	
20	
24	
16	
18	
18	
16	
19	
17	
20	
11	
17	
24	
22	
17	
18	
26	
18	
32	
19	
20	
36	
22	
14	
20	
18	
17	
11	
24	
17	
18	
26	
22	
17	
20	
27	
19	
14	
18	
23	
16	
19	
21	
18	
15	
25	
20	
21	
17	
26	
18	
17	
21	
24	
20	
13	
15	
20	
26	
19	
26	
23	
15	
16	
26	
26	
19	
