#PicoHarp 300  Histogram Data			03/13/2023 03:08:09 PM
#channels per curve
7813
#display curve no.
0	
#memory block no.
0	
#ns/channel
0.1280	
#counts
3	
3	
3	
2	
4	
1	
0	
2	
3	
0	
0	
3	
4	
2	
3	
2	
6	
1	
2	
2	
5	
0	
0	
5	
2	
2	
4	
4	
3	
3	
2	
3	
2	
2	
3	
5	
3	
6	
3	
1	
3	
2	
0	
2	
5	
1	
2	
7	
1	
5	
3	
3	
0	
2	
4	
4	
1	
3	
3	
3	
4	
2	
5	
3	
1	
4	
3	
6	
0	
5	
4	
0	
1	
4	
3	
5	
4	
5	
1	
1	
5	
1	
4	
4	
2	
3	
2	
1	
6	
1	
5	
0	
1	
4	
3	
2	
2	
2	
1	
6	
1	
2	
2	
0	
4	
4	
5	
6	
1	
5	
1	
3	
3	
2	
4	
3	
1	
0	
1	
5	
2	
4	
3	
9	
1	
1	
3	
7	
3	
2	
3	
3	
2	
2	
2	
2	
1	
4	
7	
4	
1	
4	
2	
2	
3	
2	
0	
0	
1	
4	
3	
1	
7	
7	
0	
5	
2	
1	
5	
2	
4	
1	
3	
3	
4	
4	
4	
1	
4	
1	
2	
0	
2	
4	
2	
2	
4	
3	
3	
3	
7	
2	
3	
3	
1	
3	
7	
0	
2	
7	
5	
3	
2	
2	
3	
4	
3	
6	
0	
5	
2	
5	
0	
4	
6	
3	
2	
2	
1	
1	
0	
1	
3	
1	
0	
0	
2	
3	
2	
2	
6	
3	
1	
2	
4	
1	
1	
5	
5	
5	
2	
3	
7	
4	
5	
8	
3	
2	
10	
15	
19	
47	
67	
156	
242	
434	
618	
743	
834	
855	
942	
913	
939	
1000	
913	
885	
926	
857	
826	
845	
824	
817	
841	
903	
798	
775	
715	
753	
711	
737	
710	
744	
734	
667	
682	
678	
635	
640	
656	
620	
625	
656	
585	
584	
584	
578	
581	
553	
516	
524	
552	
508	
515	
531	
533	
560	
483	
493	
527	
474	
455	
517	
492	
447	
417	
440	
452	
475	
419	
406	
438	
395	
411	
419	
443	
389	
366	
380	
362	
402	
404	
383	
353	
365	
350	
360	
376	
366	
353	
301	
334	
335	
352	
298	
321	
318	
301	
328	
274	
316	
313	
282	
268	
263	
279	
294	
259	
283	
277	
267	
259	
277	
289	
290	
229	
285	
241	
239	
254	
227	
240	
221	
209	
229	
233	
248	
227	
222	
244	
226	
179	
244	
214	
232	
192	
227	
204	
213	
196	
187	
188	
194	
209	
216	
193	
204	
198	
198	
201	
187	
172	
180	
200	
176	
179	
162	
164	
152	
157	
183	
173	
149	
151	
167	
147	
161	
158	
166	
156	
149	
152	
162	
155	
143	
144	
143	
145	
173	
128	
157	
138	
149	
137	
138	
120	
137	
137	
134	
146	
142	
144	
150	
138	
127	
114	
134	
126	
114	
121	
140	
115	
130	
133	
101	
118	
122	
110	
96	
130	
125	
108	
117	
116	
125	
117	
115	
107	
97	
121	
123	
98	
94	
117	
116	
117	
99	
102	
82	
81	
114	
102	
106	
79	
93	
102	
107	
105	
85	
87	
91	
90	
90	
98	
73	
97	
100	
82	
82	
79	
85	
92	
96	
76	
88	
88	
86	
79	
84	
102	
93	
68	
90	
64	
88	
81	
86	
73	
61	
69	
78	
78	
67	
74	
67	
80	
82	
65	
71	
59	
63	
72	
72	
71	
85	
77	
64	
81	
78	
74	
66	
63	
65	
53	
79	
74	
72	
59	
54	
72	
69	
63	
60	
66	
61	
63	
45	
54	
66	
59	
48	
38	
62	
57	
49	
53	
66	
50	
72	
56	
65	
51	
46	
52	
47	
50	
58	
45	
58	
63	
48	
53	
48	
57	
52	
52	
52	
48	
46	
58	
51	
61	
46	
47	
51	
45	
55	
52	
47	
31	
39	
46	
51	
51	
41	
41	
46	
44	
53	
48	
41	
51	
45	
50	
50	
50	
49	
46	
45	
42	
37	
34	
39	
46	
42	
49	
36	
52	
33	
57	
35	
53	
37	
47	
51	
41	
37	
53	
43	
35	
51	
33	
29	
41	
37	
41	
39	
33	
51	
41	
37	
41	
36	
31	
34	
36	
39	
36	
39	
37	
38	
26	
31	
46	
36	
28	
34	
34	
34	
31	
37	
27	
33	
34	
28	
30	
29	
29	
40	
32	
31	
35	
28	
36	
36	
41	
30	
38	
22	
23	
29	
31	
27	
28	
28	
25	
37	
23	
25	
25	
34	
33	
19	
24	
40	
31	
33	
28	
22	
20	
43	
28	
20	
34	
36	
34	
29	
20	
26	
34	
27	
30	
28	
26	
30	
24	
18	
34	
28	
25	
29	
26	
25	
24	
29	
23	
30	
25	
28	
27	
22	
20	
24	
35	
19	
26	
19	
20	
18	
29	
33	
33	
28	
34	
24	
15	
31	
19	
23	
27	
22	
21	
17	
21	
26	
20	
22	
28	
28	
26	
16	
23	
21	
20	
26	
21	
21	
22	
18	
24	
26	
20	
27	
21	
28	
23	
21	
25	
17	
13	
19	
19	
28	
23	
18	
16	
13	
19	
22	
30	
14	
14	
23	
21	
20	
14	
19	
19	
17	
18	
21	
10	
14	
13	
14	
31	
27	
16	
23	
19	
17	
22	
23	
15	
16	
18	
20	
22	
22	
17	
15	
16	
16	
22	
19	
13	
14	
16	
26	
15	
17	
16	
21	
14	
12	
10	
14	
25	
17	
16	
12	
18	
26	
21	
10	
12	
18	
12	
23	
13	
23	
17	
21	
16	
15	
17	
10	
24	
16	
13	
17	
25	
15	
8	
8	
16	
16	
16	
17	
13	
17	
12	
14	
19	
12	
9	
13	
9	
15	
20	
12	
17	
14	
15	
7	
17	
18	
15	
9	
14	
13	
8	
13	
16	
7	
15	
20	
12	
11	
11	
15	
16	
11	
12	
14	
16	
11	
18	
22	
15	
15	
18	
9	
16	
11	
10	
8	
10	
14	
7	
15	
13	
10	
10	
16	
9	
12	
4	
7	
13	
13	
6	
13	
10	
10	
13	
13	
16	
14	
7	
6	
10	
11	
13	
8	
10	
11	
10	
11	
7	
12	
9	
11	
10	
8	
14	
8	
18	
17	
7	
20	
12	
11	
11	
11	
6	
13	
12	
10	
17	
12	
14	
16	
13	
12	
6	
10	
15	
4	
11	
8	
8	
13	
13	
7	
14	
10	
14	
9	
18	
8	
14	
14	
17	
11	
13	
10	
9	
8	
8	
6	
10	
5	
15	
7	
9	
15	
14	
14	
16	
8	
13	
14	
12	
10	
11	
10	
5	
13	
13	
16	
11	
8	
8	
7	
10	
8	
6	
13	
11	
8	
11	
11	
12	
8	
14	
12	
6	
7	
12	
10	
9	
12	
8	
12	
12	
6	
9	
11	
11	
8	
9	
7	
9	
11	
13	
10	
16	
11	
6	
9	
10	
4	
9	
7	
6	
7	
9	
4	
11	
6	
9	
12	
12	
11	
7	
17	
8	
12	
6	
8	
10	
6	
6	
9	
15	
8	
10	
6	
11	
14	
8	
10	
8	
9	
8	
14	
13	
17	
9	
8	
2	
14	
5	
12	
7	
7	
13	
12	
8	
5	
7	
9	
20	
11	
12	
9	
1	
6	
13	
7	
11	
7	
7	
6	
9	
6	
11	
9	
9	
10	
8	
13	
9	
12	
9	
11	
13	
13	
12	
5	
7	
7	
7	
2	
6	
7	
14	
4	
4	
8	
8	
10	
13	
10	
6	
9	
3	
11	
13	
11	
11	
6	
11	
7	
5	
8	
9	
11	
4	
8	
8	
7	
7	
14	
8	
11	
12	
7	
6	
7	
10	
6	
12	
7	
8	
10	
8	
13	
6	
9	
4	
8	
9	
7	
4	
11	
12	
8	
2	
5	
7	
10	
6	
5	
3	
6	
7	
6	
9	
8	
5	
10	
6	
4	
6	
8	
8	
9	
9	
10	
8	
7	
8	
8	
6	
2	
3	
5	
6	
9	
8	
7	
4	
8	
9	
6	
3	
8	
9	
9	
4	
7	
0	
11	
8	
11	
6	
8	
8	
11	
7	
1	
13	
8	
8	
8	
8	
10	
7	
13	
9	
4	
10	
9	
5	
7	
10	
6	
5	
6	
4	
8	
5	
7	
6	
4	
5	
8	
6	
8	
5	
8	
9	
5	
12	
1	
12	
7	
4	
7	
9	
8	
6	
5	
3	
7	
9	
7	
10	
7	
5	
3	
3	
8	
6	
4	
8	
3	
6	
5	
7	
2	
9	
6	
0	
2	
10	
6	
5	
6	
13	
2	
7	
7	
4	
6	
3	
8	
4	
5	
9	
9	
5	
7	
7	
5	
10	
10	
3	
11	
7	
8	
2	
6	
6	
4	
8	
9	
4	
8	
3	
9	
7	
5	
6	
2	
7	
4	
5	
5	
4	
8	
8	
5	
3	
4	
4	
9	
5	
5	
3	
6	
5	
7	
3	
6	
11	
7	
4	
8	
7	
4	
7	
3	
1	
3	
7	
1	
7	
3	
6	
5	
4	
8	
4	
5	
6	
11	
6	
8	
6	
6	
5	
7	
9	
4	
3	
4	
6	
9	
2	
6	
4	
3	
6	
5	
3	
5	
5	
7	
7	
1	
8	
5	
6	
2	
9	
11	
4	
6	
8	
7	
5	
10	
3	
8	
11	
3	
7	
6	
6	
7	
3	
6	
6	
3	
9	
8	
6	
6	
7	
8	
3	
7	
7	
4	
7	
7	
7	
13	
4	
5	
6	
5	
6	
6	
8	
5	
9	
9	
3	
3	
3	
3	
11	
5	
4	
3	
7	
9	
7	
6	
6	
4	
1	
8	
7	
7	
9	
8	
5	
9	
3	
2	
3	
3	
3	
6	
3	
5	
3	
8	
3	
7	
3	
11	
6	
7	
10	
9	
4	
5	
4	
3	
3	
3	
9	
6	
6	
4	
5	
7	
9	
11	
4	
4	
2	
4	
10	
5	
6	
5	
4	
6	
5	
3	
13	
5	
5	
4	
10	
2	
5	
5	
6	
5	
2	
6	
3	
4	
6	
7	
3	
6	
4	
3	
2	
4	
3	
5	
1	
4	
7	
4	
5	
5	
3	
7	
2	
6	
5	
6	
4	
5	
2	
7	
3	
8	
6	
6	
2	
1	
7	
7	
7	
3	
5	
8	
4	
4	
5	
1	
3	
5	
6	
5	
4	
11	
4	
8	
8	
6	
3	
5	
8	
9	
1	
4	
7	
3	
3	
6	
5	
2	
5	
4	
4	
7	
9	
2	
8	
4	
5	
9	
7	
6	
3	
3	
6	
4	
5	
3	
7	
4	
4	
8	
2	
3	
6	
4	
3	
4	
5	
1	
4	
6	
6	
4	
5	
6	
7	
6	
4	
3	
3	
6	
6	
8	
6	
1	
5	
1	
5	
7	
1	
5	
2	
7	
3	
6	
4	
4	
2	
2	
2	
5	
3	
2	
6	
6	
7	
6	
5	
4	
5	
9	
3	
2	
5	
6	
4	
7	
4	
4	
4	
9	
5	
4	
2	
9	
6	
2	
8	
4	
2	
7	
2	
8	
4	
9	
2	
4	
5	
2	
7	
11	
7	
1	
5	
4	
4	
1	
3	
6	
4	
9	
3	
9	
2	
7	
6	
3	
5	
3	
6	
3	
5	
9	
2	
6	
3	
5	
2	
3	
2	
5	
5	
6	
5	
4	
1	
6	
8	
2	
4	
6	
5	
5	
4	
6	
6	
4	
2	
0	
6	
3	
5	
5	
5	
0	
3	
3	
2	
7	
2	
7	
6	
4	
3	
6	
3	
4	
9	
3	
5	
6	
5	
4	
3	
7	
2	
2	
1	
2	
3	
3	
6	
3	
6	
1	
5	
2	
6	
7	
6	
5	
5	
2	
5	
3	
3	
3	
1	
5	
9	
6	
4	
2	
3	
5	
2	
4	
4	
4	
7	
2	
1	
9	
2	
5	
5	
7	
1	
4	
5	
4	
6	
0	
7	
2	
8	
7	
3	
1	
4	
3	
1	
5	
7	
2	
4	
6	
5	
3	
4	
2	
5	
5	
5	
3	
7	
2	
3	
6	
6	
8	
5	
7	
3	
7	
3	
6	
5	
2	
6	
8	
5	
0	
2	
3	
1	
6	
1	
7	
2	
4	
5	
8	
4	
4	
2	
5	
6	
4	
6	
2	
6	
6	
7	
1	
7	
3	
2	
9	
4	
7	
6	
7	
3	
0	
1	
4	
5	
3	
4	
1	
4	
10	
4	
4	
1	
6	
5	
5	
3	
4	
1	
4	
6	
4	
2	
5	
3	
4	
4	
2	
2	
4	
4	
3	
4	
4	
1	
2	
3	
4	
3	
6	
3	
2	
2	
4	
3	
5	
4	
2	
4	
5	
5	
4	
5	
2	
3	
2	
5	
3	
3	
3	
3	
1	
3	
5	
8	
4	
6	
5	
0	
4	
3	
0	
3	
1	
7	
2	
3	
4	
3	
1	
2	
3	
4	
3	
7	
6	
5	
1	
7	
3	
6	
3	
4	
5	
3	
4	
2	
4	
4	
4	
1	
3	
3	
4	
3	
2	
4	
4	
5	
5	
4	
4	
1	
10	
2	
0	
2	
7	
2	
4	
8	
0	
0	
3	
3	
2	
6	
5	
2	
4	
8	
2	
2	
3	
4	
1	
1	
6	
6	
3	
2	
5	
4	
2	
3	
4	
4	
1	
2	
3	
2	
5	
0	
7	
3	
2	
4	
4	
2	
4	
2	
4	
3	
2	
5	
2	
5	
4	
5	
4	
3	
5	
4	
6	
0	
5	
2	
5	
1	
4	
5	
4	
4	
4	
5	
3	
1	
5	
2	
3	
4	
4	
6	
1	
3	
6	
3	
0	
4	
5	
4	
5	
7	
7	
3	
6	
2	
5	
6	
1	
4	
1	
6	
2	
1	
6	
1	
3	
3	
1	
1	
4	
2	
3	
3	
5	
3	
4	
5	
5	
1	
6	
2	
5	
2	
5	
1	
1	
5	
2	
4	
4	
5	
3	
3	
1	
4	
5	
5	
5	
5	
4	
3	
5	
6	
3	
2	
4	
6	
4	
4	
6	
7	
1	
6	
5	
5	
3	
3	
6	
7	
6	
6	
5	
3	
6	
3	
2	
4	
4	
5	
2	
4	
7	
3	
0	
2	
6	
5	
4	
3	
4	
5	
2	
3	
2	
1	
3	
5	
5	
4	
6	
5	
2	
6	
3	
8	
4	
3	
4	
2	
5	
3	
3	
3	
4	
4	
5	
3	
2	
4	
2	
3	
7	
0	
3	
7	
2	
4	
1	
4	
6	
3	
4	
3	
4	
4	
3	
1	
3	
4	
5	
6	
5	
2	
4	
3	
6	
1	
4	
2	
2	
7	
6	
5	
1	
4	
0	
2	
4	
3	
4	
6	
5	
0	
5	
4	
5	
3	
2	
5	
3	
5	
3	
3	
5	
2	
0	
1	
7	
5	
2	
2	
6	
4	
5	
0	
5	
5	
3	
4	
2	
7	
4	
3	
7	
3	
5	
4	
3	
6	
4	
3	
1	
2	
5	
5	
5	
3	
2	
3	
2	
4	
2	
3	
4	
2	
7	
0	
0	
5	
4	
2	
2	
2	
2	
3	
3	
5	
4	
1	
4	
1	
4	
1	
1	
3	
2	
7	
3	
2	
7	
4	
3	
4	
6	
5	
2	
4	
5	
5	
3	
8	
3	
6	
6	
3	
3	
4	
2	
3	
5	
1	
3	
3	
1	
2	
5	
4	
4	
2	
6	
7	
1	
5	
3	
5	
3	
2	
3	
4	
5	
2	
4	
4	
2	
4	
4	
2	
2	
2	
5	
7	
2	
3	
2	
4	
4	
1	
3	
4	
1	
2	
6	
6	
3	
7	
6	
2	
7	
7	
2	
2	
1	
4	
2	
2	
3	
7	
8	
3	
3	
4	
4	
2	
5	
2	
2	
4	
5	
6	
5	
2	
4	
2	
5	
6	
8	
1	
3	
5	
3	
1	
4	
5	
4	
0	
5	
2	
2	
3	
1	
4	
7	
4	
3	
6	
1	
2	
3	
3	
4	
2	
1	
3	
2	
2	
0	
4	
4	
4	
3	
5	
3	
1	
1	
2	
0	
3	
5	
6	
0	
2	
1	
1	
3	
1	
0	
5	
3	
3	
2	
3	
3	
6	
1	
3	
2	
2	
0	
4	
2	
4	
3	
2	
8	
1	
4	
2	
2	
6	
2	
5	
7	
0	
2	
3	
2	
5	
5	
2	
4	
6	
2	
3	
2	
3	
2	
1	
2	
5	
4	
4	
2	
0	
3	
2	
2	
4	
8	
5	
3	
5	
1	
4	
5	
0	
6	
1	
2	
2	
1	
3	
5	
7	
5	
5	
2	
3	
5	
6	
5	
3	
2	
6	
5	
1	
2	
1	
3	
3	
5	
5	
8	
1	
7	
2	
3	
0	
4	
7	
6	
2	
0	
1	
1	
2	
3	
3	
4	
3	
2	
1	
1	
2	
3	
8	
1	
7	
3	
2	
3	
2	
4	
3	
4	
0	
6	
4	
2	
3	
1	
3	
6	
1	
1	
4	
5	
2	
2	
2	
3	
0	
3	
3	
3	
4	
2	
4	
6	
3	
3	
3	
2	
2	
3	
1	
1	
3	
6	
5	
3	
1	
3	
1	
7	
1	
2	
3	
4	
6	
2	
4	
4	
2	
7	
1	
3	
4	
8	
2	
5	
5	
7	
4	
2	
3	
6	
4	
4	
2	
4	
1	
4	
1	
5	
2	
6	
4	
0	
2	
5	
1	
7	
2	
4	
6	
5	
2	
5	
2	
3	
4	
3	
0	
2	
5	
3	
3	
5	
0	
4	
3	
3	
6	
1	
3	
4	
1	
1	
3	
4	
2	
3	
1	
3	
2	
7	
2	
1	
4	
2	
9	
4	
2	
6	
2	
4	
2	
5	
6	
3	
4	
4	
2	
2	
5	
3	
4	
6	
4	
4	
4	
1	
2	
3	
4	
2	
5	
3	
4	
6	
5	
6	
3	
4	
2	
3	
1	
4	
2	
6	
3	
4	
5	
1	
2	
5	
2	
3	
4	
5	
7	
4	
4	
4	
4	
2	
7	
3	
1	
1	
6	
2	
2	
5	
4	
3	
1	
2	
2	
3	
5	
1	
6	
1	
3	
5	
5	
5	
3	
1	
4	
6	
2	
0	
2	
1	
3	
3	
3	
7	
4	
3	
3	
3	
3	
4	
5	
3	
0	
4	
4	
3	
3	
3	
2	
3	
2	
2	
3	
6	
3	
2	
1	
2	
3	
3	
2	
1	
3	
4	
6	
2	
4	
3	
3	
3	
2	
2	
2	
3	
1	
3	
4	
6	
5	
4	
3	
3	
2	
2	
4	
3	
3	
7	
2	
4	
1	
1	
3	
2	
4	
3	
4	
6	
1	
2	
1	
1	
4	
4	
6	
5	
3	
3	
2	
4	
4	
2	
2	
3	
3	
1	
4	
6	
3	
4	
4	
2	
3	
2	
5	
2	
4	
4	
3	
0	
3	
2	
2	
4	
3	
2	
4	
1	
3	
4	
2	
7	
4	
0	
3	
0	
6	
2	
2	
4	
7	
4	
2	
1	
3	
6	
4	
2	
1	
1	
2	
2	
4	
2	
3	
2	
2	
4	
0	
3	
3	
1	
1	
5	
4	
1	
2	
8	
3	
4	
3	
3	
3	
6	
2	
3	
3	
4	
4	
2	
3	
2	
5	
8	
5	
4	
5	
2	
3	
1	
2	
5	
5	
3	
3	
3	
5	
5	
2	
5	
4	
2	
2	
2	
1	
3	
1	
3	
2	
3	
2	
4	
3	
5	
8	
2	
4	
7	
3	
4	
1	
5	
5	
3	
5	
1	
2	
1	
7	
2	
3	
4	
3	
1	
4	
5	
1	
3	
2	
3	
4	
3	
4	
4	
2	
2	
4	
3	
4	
6	
1	
4	
5	
1	
1	
1	
4	
1	
2	
2	
6	
5	
2	
3	
5	
8	
2	
2	
4	
2	
0	
1	
4	
6	
7	
4	
4	
5	
2	
2	
2	
2	
2	
4	
0	
6	
4	
2	
1	
3	
1	
3	
4	
3	
3	
0	
4	
10	
5	
0	
5	
1	
5	
3	
4	
4	
0	
6	
3	
3	
3	
2	
3	
4	
1	
0	
1	
1	
4	
2	
3	
8	
5	
3	
4	
7	
2	
1	
1	
3	
5	
7	
6	
3	
2	
3	
3	
0	
5	
5	
2	
4	
1	
2	
4	
0	
4	
3	
1	
4	
3	
1	
2	
3	
1	
1	
4	
5	
1	
3	
1	
5	
2	
4	
1	
5	
2	
4	
5	
5	
5	
3	
3	
3	
3	
5	
2	
1	
1	
1	
3	
4	
1	
4	
4	
0	
2	
1	
2	
1	
4	
2	
0	
4	
3	
0	
7	
2	
5	
3	
2	
3	
5	
3	
2	
3	
2	
2	
2	
3	
2	
7	
2	
5	
1	
4	
3	
6	
2	
8	
4	
0	
2	
5	
1	
3	
2	
6	
3	
1	
6	
3	
6	
4	
4	
2	
5	
5	
5	
5	
2	
3	
6	
3	
3	
3	
1	
3	
7	
3	
3	
7	
4	
2	
1	
0	
1	
4	
1	
1	
3	
5	
2	
1	
6	
5	
2	
2	
3	
3	
2	
5	
0	
2	
3	
3	
5	
2	
4	
3	
4	
3	
6	
5	
3	
6	
4	
3	
4	
1	
5	
3	
1	
1	
2	
4	
3	
2	
3	
3	
0	
4	
6	
1	
4	
5	
1	
3	
2	
2	
1	
3	
2	
1	
3	
2	
5	
2	
4	
3	
5	
8	
1	
4	
4	
4	
4	
2	
2	
4	
4	
4	
6	
4	
1	
4	
1	
3	
2	
3	
2	
6	
3	
2	
4	
1	
2	
3	
2	
3	
4	
1	
4	
0	
3	
4	
1	
3	
5	
3	
10	
8	
3	
7	
4	
4	
2	
5	
5	
4	
3	
6	
0	
1	
3	
3	
1	
4	
5	
1	
1	
1	
3	
3	
3	
3	
2	
1	
2	
3	
3	
3	
2	
2	
3	
3	
5	
1	
2	
4	
2	
3	
2	
0	
4	
2	
4	
5	
2	
3	
3	
1	
2	
2	
6	
4	
2	
4	
0	
1	
3	
1	
4	
4	
6	
6	
1	
0	
3	
2	
2	
2	
3	
3	
1	
2	
4	
1	
2	
2	
3	
5	
3	
1	
4	
3	
1	
3	
4	
3	
3	
7	
6	
7	
4	
3	
2	
6	
2	
3	
1	
0	
5	
2	
2	
1	
3	
3	
2	
3	
5	
6	
3	
2	
3	
7	
2	
4	
3	
3	
1	
5	
0	
3	
4	
2	
3	
3	
3	
2	
4	
3	
8	
5	
3	
3	
1	
3	
0	
1	
4	
1	
1	
0	
4	
1	
3	
3	
1	
3	
4	
4	
2	
3	
3	
3	
2	
3	
2	
1	
2	
2	
2	
1	
1	
4	
5	
7	
2	
2	
1	
1	
2	
2	
6	
2	
3	
5	
2	
2	
1	
5	
4	
4	
2	
6	
5	
4	
1	
2	
2	
4	
1	
4	
1	
5	
4	
7	
3	
2	
0	
2	
4	
3	
1	
4	
3	
3	
4	
0	
1	
4	
5	
6	
1	
3	
2	
2	
3	
4	
1	
4	
2	
4	
4	
2	
1	
4	
1	
8	
3	
1	
5	
8	
3	
4	
6	
1	
2	
5	
7	
3	
2	
2	
2	
1	
3	
1	
3	
4	
5	
4	
5	
1	
3	
0	
5	
2	
1	
6	
1	
1	
6	
3	
5	
4	
5	
6	
2	
2	
6	
3	
4	
5	
2	
3	
3	
3	
8	
3	
2	
6	
0	
3	
0	
4	
2	
1	
4	
3	
6	
3	
2	
3	
2	
4	
4	
4	
0	
2	
2	
2	
0	
2	
3	
4	
8	
1	
2	
5	
3	
5	
1	
2	
6	
3	
3	
2	
3	
0	
3	
6	
2	
4	
4	
1	
4	
4	
3	
5	
3	
4	
3	
5	
0	
2	
2	
3	
3	
3	
3	
2	
1	
0	
2	
1	
1	
4	
5	
3	
2	
2	
5	
2	
2	
4	
3	
6	
1	
1	
2	
2	
2	
5	
2	
3	
5	
1	
2	
2	
8	
5	
6	
2	
2	
0	
2	
3	
3	
4	
2	
3	
3	
5	
5	
3	
1	
3	
2	
5	
4	
2	
4	
1	
2	
4	
1	
5	
7	
4	
5	
2	
4	
8	
2	
3	
4	
4	
2	
7	
3	
5	
6	
2	
1	
1	
2	
0	
0	
9	
1	
3	
5	
5	
2	
1	
4	
3	
3	
6	
5	
1	
0	
2	
2	
4	
1	
6	
0	
4	
3	
3	
1	
2	
2	
4	
0	
3	
2	
3	
4	
6	
3	
0	
4	
2	
3	
2	
4	
1	
0	
6	
1	
3	
2	
4	
4	
2	
7	
1	
2	
2	
3	
4	
6	
1	
2	
3	
1	
2	
3	
2	
3	
5	
3	
1	
3	
3	
2	
4	
0	
3	
0	
3	
4	
4	
5	
4	
4	
0	
1	
1	
0	
5	
4	
1	
4	
5	
2	
2	
3	
3	
5	
1	
6	
3	
3	
3	
3	
6	
3	
0	
1	
4	
4	
2	
0	
4	
3	
5	
1	
2	
4	
3	
2	
1	
3	
5	
4	
5	
4	
3	
6	
2	
3	
1	
3	
5	
2	
2	
6	
6	
3	
2	
5	
2	
2	
4	
5	
4	
3	
3	
2	
3	
2	
1	
4	
3	
3	
3	
6	
5	
4	
0	
3	
4	
5	
2	
3	
4	
7	
2	
1	
1	
2	
3	
2	
1	
6	
6	
2	
1	
4	
0	
1	
2	
1	
5	
1	
4	
2	
5	
3	
2	
4	
1	
7	
3	
3	
0	
9	
5	
2	
3	
1	
5	
2	
2	
3	
2	
4	
5	
5	
3	
3	
2	
3	
1	
1	
3	
2	
5	
2	
5	
4	
1	
1	
8	
3	
2	
3	
2	
0	
3	
6	
6	
2	
5	
3	
3	
6	
4	
1	
4	
3	
4	
5	
3	
3	
1	
4	
4	
2	
3	
1	
2	
2	
1	
5	
0	
6	
1	
4	
1	
2	
5	
1	
3	
3	
4	
5	
2	
2	
2	
3	
5	
2	
2	
4	
2	
4	
3	
4	
0	
3	
4	
6	
2	
3	
6	
2	
3	
2	
4	
5	
1	
2	
5	
4	
4	
6	
3	
3	
3	
2	
2	
7	
1	
1	
4	
5	
5	
3	
2	
2	
4	
2	
6	
3	
3	
0	
5	
4	
5	
3	
2	
6	
4	
3	
1	
3	
2	
4	
3	
2	
2	
6	
5	
6	
0	
4	
5	
7	
3	
2	
5	
1	
0	
3	
3	
0	
6	
2	
5	
3	
1	
6	
2	
2	
3	
2	
3	
1	
4	
3	
2	
5	
1	
3	
4	
2	
4	
4	
3	
4	
7	
3	
1	
2	
1	
2	
8	
2	
3	
6	
5	
1	
5	
4	
2	
3	
3	
8	
3	
4	
3	
3	
0	
1	
3	
0	
4	
3	
2	
5	
4	
2	
3	
4	
3	
0	
3	
4	
4	
6	
1	
4	
3	
1	
1	
4	
3	
3	
2	
5	
2	
3	
3	
0	
3	
1	
5	
0	
4	
4	
8	
3	
5	
3	
1	
6	
5	
4	
4	
6	
3	
2	
3	
1	
5	
4	
3	
4	
4	
2	
4	
2	
2	
2	
2	
1	
1	
4	
4	
2	
3	
1	
1	
2	
1	
2	
3	
2	
1	
1	
2	
5	
5	
5	
2	
1	
2	
6	
1	
3	
2	
2	
3	
5	
0	
4	
3	
3	
3	
2	
1	
2	
2	
5	
2	
2	
3	
4	
0	
3	
0	
0	
4	
5	
2	
7	
5	
4	
8	
2	
4	
3	
4	
3	
2	
4	
0	
0	
3	
4	
5	
3	
2	
2	
5	
5	
3	
4	
3	
2	
6	
2	
4	
0	
3	
4	
2	
2	
2	
3	
2	
1	
2	
5	
3	
3	
2	
3	
6	
1	
2	
3	
3	
2	
4	
2	
5	
6	
1	
2	
1	
5	
1	
3	
3	
5	
3	
1	
7	
2	
3	
1	
0	
2	
0	
3	
4	
2	
3	
2	
2	
1	
3	
2	
2	
4	
2	
5	
4	
4	
5	
4	
4	
0	
4	
2	
5	
1	
4	
4	
1	
4	
5	
1	
6	
3	
4	
1	
2	
1	
1	
4	
3	
2	
3	
4	
1	
1	
2	
3	
3	
3	
2	
6	
4	
4	
3	
1	
3	
3	
4	
3	
6	
1	
0	
2	
4	
2	
3	
2	
5	
3	
4	
1	
6	
3	
6	
4	
2	
2	
1	
1	
1	
2	
3	
4	
1	
2	
5	
3	
3	
4	
5	
5	
4	
3	
2	
3	
3	
6	
0	
3	
3	
1	
2	
4	
0	
0	
3	
1	
0	
2	
6	
2	
5	
3	
4	
0	
4	
1	
5	
2	
4	
4	
2	
4	
1	
2	
4	
2	
2	
1	
2	
4	
3	
2	
4	
1	
2	
3	
2	
2	
4	
2	
1	
3	
1	
3	
10	
2	
0	
5	
3	
1	
5	
2	
1	
4	
4	
1	
4	
2	
5	
3	
4	
7	
2	
1	
6	
6	
4	
5	
3	
1	
1	
3	
3	
2	
0	
1	
3	
1	
3	
1	
1	
2	
2	
6	
2	
3	
3	
2	
2	
3	
2	
3	
4	
1	
3	
4	
5	
1	
6	
4	
6	
4	
3	
4	
2	
3	
5	
3	
3	
8	
3	
4	
7	
3	
3	
1	
2	
2	
4	
1	
3	
1	
3	
1	
3	
3	
6	
1	
4	
5	
5	
2	
2	
4	
3	
4	
3	
2	
2	
3	
2	
4	
2	
2	
1	
2	
3	
2	
2	
1	
0	
4	
3	
0	
1	
3	
3	
3	
2	
4	
1	
2	
1	
2	
2	
4	
3	
3	
3	
1	
3	
5	
2	
3	
4	
6	
3	
3	
7	
4	
6	
1	
1	
3	
1	
2	
2	
5	
1	
3	
4	
2	
1	
3	
2	
6	
2	
3	
3	
3	
3	
0	
3	
1	
4	
3	
4	
2	
3	
0	
2	
0	
1	
5	
2	
1	
4	
1	
1	
1	
3	
3	
4	
2	
3	
2	
5	
2	
3	
3	
4	
2	
3	
6	
2	
1	
3	
4	
1	
4	
3	
3	
3	
6	
2	
1	
3	
2	
4	
4	
2	
5	
2	
4	
3	
4	
4	
2	
3	
4	
2	
3	
8	
4	
3	
2	
1	
6	
2	
0	
1	
1	
3	
1	
1	
3	
2	
3	
4	
5	
6	
2	
1	
4	
4	
5	
3	
2	
1	
1	
3	
3	
0	
4	
5	
5	
0	
2	
1	
4	
2	
3	
0	
4	
3	
5	
4	
5	
3	
4	
5	
3	
3	
4	
1	
4	
1	
2	
2	
3	
4	
6	
6	
1	
4	
4	
5	
0	
3	
3	
3	
0	
3	
3	
2	
1	
2	
3	
1	
0	
2	
2	
2	
2	
2	
1	
0	
1	
10	
1	
0	
1	
2	
1	
0	
6	
3	
4	
5	
4	
0	
2	
2	
3	
1	
4	
4	
5	
5	
3	
5	
2	
5	
1	
3	
1	
2	
3	
0	
2	
2	
3	
6	
2	
1	
6	
4	
1	
1	
3	
2	
6	
3	
5	
2	
4	
1	
1	
3	
2	
4	
2	
0	
2	
1	
2	
1	
2	
4	
2	
0	
4	
3	
4	
2	
5	
1	
8	
5	
2	
1	
1	
0	
2	
3	
4	
3	
7	
7	
2	
2	
2	
2	
3	
4	
1	
2	
1	
2	
2	
4	
1	
4	
3	
1	
1	
3	
6	
3	
1	
3	
2	
2	
5	
1	
7	
3	
2	
3	
0	
3	
2	
0	
0	
5	
7	
7	
3	
5	
4	
4	
2	
3	
4	
6	
1	
4	
0	
2	
5	
4	
1	
4	
4	
1	
0	
3	
3	
4	
4	
3	
2	
5	
3	
1	
4	
5	
2	
3	
2	
2	
3	
3	
4	
6	
0	
5	
5	
6	
3	
2	
3	
7	
7	
2	
3	
4	
2	
5	
1	
5	
4	
5	
3	
2	
1	
1	
3	
3	
3	
3	
2	
3	
2	
1	
4	
4	
0	
2	
4	
4	
1	
1	
3	
3	
2	
1	
0	
2	
2	
4	
1	
1	
0	
2	
3	
3	
0	
4	
0	
1	
0	
5	
3	
3	
1	
4	
0	
1	
2	
3	
3	
1	
2	
1	
3	
3	
5	
3	
3	
2	
2	
2	
3	
5	
0	
5	
1	
3	
4	
1	
3	
3	
4	
2	
3	
1	
1	
2	
1	
2	
4	
3	
2	
0	
3	
1	
5	
2	
4	
1	
2	
4	
1	
2	
3	
0	
3	
7	
6	
1	
5	
1	
3	
3	
3	
3	
2	
2	
2	
3	
4	
4	
3	
2	
2	
2	
2	
1	
2	
4	
1	
3	
2	
5	
3	
1	
3	
4	
3	
3	
2	
2	
2	
4	
3	
4	
0	
2	
3	
7	
8	
3	
3	
3	
1	
2	
4	
0	
5	
0	
1	
7	
2	
2	
6	
3	
1	
2	
1	
3	
5	
0	
2	
1	
4	
2	
4	
4	
3	
0	
5	
4	
5	
0	
3	
1	
0	
4	
7	
3	
2	
4	
2	
5	
4	
1	
2	
3	
1	
3	
5	
4	
1	
4	
4	
4	
5	
1	
0	
6	
2	
2	
4	
4	
2	
3	
6	
4	
6	
4	
4	
2	
3	
1	
4	
5	
1	
7	
1	
3	
4	
2	
3	
0	
2	
5	
7	
3	
2	
4	
0	
6	
2	
3	
3	
1	
3	
5	
5	
4	
0	
2	
1	
0	
5	
6	
4	
4	
2	
1	
1	
1	
6	
4	
4	
3	
4	
4	
2	
4	
0	
2	
2	
6	
1	
3	
1	
1	
1	
3	
4	
3	
3	
2	
1	
1	
3	
3	
2	
2	
7	
5	
0	
1	
2	
5	
1	
3	
1	
2	
0	
0	
3	
2	
2	
1	
5	
1	
2	
7	
1	
4	
1	
2	
6	
2	
1	
3	
3	
2	
3	
3	
1	
2	
2	
1	
4	
2	
3	
3	
3	
9	
1	
4	
2	
2	
7	
3	
3	
2	
2	
2	
3	
2	
4	
7	
2	
1	
4	
1	
2	
2	
4	
2	
9	
2	
4	
3	
2	
1	
3	
5	
1	
1	
4	
4	
1	
2	
3	
6	
4	
2	
3	
7	
4	
1	
4	
4	
3	
3	
1	
1	
2	
0	
7	
2	
3	
3	
1	
3	
5	
2	
3	
3	
6	
4	
1	
2	
2	
2	
3	
3	
4	
3	
1	
1	
5	
1	
4	
2	
2	
1	
2	
6	
3	
4	
4	
1	
2	
4	
9	
4	
6	
2	
1	
9	
6	
2	
2	
3	
3	
1	
5	
1	
2	
1	
4	
2	
4	
2	
1	
4	
2	
2	
2	
5	
5	
2	
4	
5	
0	
3	
5	
1	
5	
1	
3	
3	
2	
3	
0	
2	
6	
5	
3	
3	
1	
2	
5	
4	
3	
4	
5	
5	
4	
2	
3	
5	
2	
4	
1	
3	
2	
6	
1	
2	
2	
0	
1	
3	
3	
2	
5	
3	
3	
2	
2	
5	
4	
2	
3	
1	
0	
6	
2	
5	
7	
5	
2	
6	
2	
6	
2	
2	
2	
2	
2	
4	
5	
2	
7	
3	
5	
2	
2	
3	
4	
4	
1	
5	
3	
2	
3	
3	
2	
3	
7	
4	
2	
2	
2	
3	
3	
3	
3	
4	
3	
5	
0	
4	
4	
3	
1	
4	
4	
1	
3	
5	
0	
3	
2	
4	
2	
4	
0	
4	
2	
2	
3	
5	
2	
3	
0	
4	
4	
4	
2	
2	
0	
4	
5	
0	
2	
2	
5	
3	
5	
1	
4	
5	
7	
1	
4	
2	
1	
4	
0	
2	
3	
3	
2	
5	
2	
2	
2	
0	
6	
5	
4	
4	
3	
1	
4	
2	
2	
5	
3	
2	
3	
4	
2	
2	
2	
2	
7	
3	
4	
3	
0	
2	
1	
4	
4	
1	
3	
5	
1	
2	
2	
1	
5	
1	
1	
1	
4	
1	
2	
1	
1	
3	
3	
0	
4	
3	
5	
3	
4	
1	
0	
0	
2	
4	
1	
1	
3	
0	
5	
1	
2	
4	
1	
5	
2	
4	
1	
2	
8	
6	
3	
1	
2	
2	
3	
4	
2	
1	
3	
4	
3	
2	
2	
6	
1	
1	
1	
4	
3	
4	
2	
4	
2	
1	
4	
4	
1	
2	
2	
2	
2	
3	
1	
1	
0	
2	
4	
2	
3	
2	
3	
3	
2	
1	
1	
4	
3	
5	
4	
4	
3	
1	
1	
4	
2	
5	
3	
1	
1	
4	
3	
5	
0	
3	
2	
4	
0	
3	
1	
4	
8	
3	
4	
4	
2	
0	
2	
1	
5	
6	
0	
2	
3	
2	
3	
4	
0	
3	
1	
3	
2	
1	
5	
5	
5	
1	
1	
0	
4	
1	
0	
5	
2	
3	
4	
0	
0	
4	
6	
3	
4	
3	
2	
2	
4	
4	
2	
4	
1	
1	
2	
3	
2	
1	
0	
3	
3	
2	
3	
3	
2	
4	
2	
5	
2	
6	
1	
5	
4	
2	
4	
1	
3	
3	
4	
0	
4	
2	
3	
4	
5	
4	
0	
0	
1	
5	
2	
3	
2	
4	
3	
1	
0	
3	
3	
3	
2	
4	
5	
2	
2	
2	
4	
3	
4	
1	
4	
6	
2	
3	
2	
5	
1	
3	
2	
0	
2	
3	
4	
3	
2	
0	
2	
2	
4	
3	
2	
2	
2	
2	
3	
1	
3	
2	
0	
3	
1	
3	
2	
5	
3	
1	
3	
1	
4	
1	
3	
3	
4	
4	
2	
5	
2	
6	
2	
2	
5	
2	
3	
1	
4	
3	
1	
4	
3	
3	
3	
5	
4	
5	
2	
0	
1	
2	
2	
0	
5	
2	
3	
1	
5	
3	
3	
1	
1	
0	
1	
1	
4	
4	
2	
1	
4	
2	
5	
7	
2	
1	
2	
1	
4	
1	
3	
1	
1	
0	
1	
6	
2	
6	
4	
2	
2	
3	
3	
2	
5	
3	
1	
4	
5	
6	
3	
5	
3	
2	
1	
3	
3	
2	
2	
1	
4	
1	
2	
2	
5	
5	
2	
4	
3	
3	
5	
3	
3	
4	
2	
4	
2	
0	
0	
1	
1	
2	
4	
1	
4	
2	
2	
3	
2	
2	
2	
5	
5	
1	
2	
2	
3	
3	
5	
3	
2	
3	
2	
3	
5	
4	
2	
2	
3	
5	
6	
7	
3	
2	
4	
1	
2	
1	
3	
2	
4	
3	
2	
3	
3	
3	
2	
5	
0	
3	
4	
6	
2	
2	
3	
2	
0	
1	
3	
4	
1	
3	
2	
5	
1	
6	
3	
1	
2	
3	
0	
2	
3	
1	
6	
5	
1	
4	
5	
5	
2	
2	
4	
0	
3	
6	
4	
0	
4	
4	
2	
0	
0	
2	
4	
1	
0	
3	
1	
4	
2	
2	
5	
0	
2	
0	
3	
2	
2	
4	
2	
1	
1	
4	
1	
3	
0	
3	
6	
4	
4	
1	
3	
2	
6	
2	
4	
3	
2	
3	
0	
1	
2	
3	
2	
3	
3	
2	
5	
2	
3	
5	
3	
1	
2	
3	
2	
2	
1	
1	
4	
2	
1	
2	
0	
1	
2	
1	
3	
3	
3	
6	
5	
0	
2	
4	
3	
7	
1	
2	
1	
1	
5	
2	
3	
2	
3	
5	
2	
2	
3	
5	
6	
4	
4	
3	
2	
5	
4	
1	
3	
4	
0	
3	
8	
4	
2	
5	
7	
2	
3	
5	
3	
5	
4	
4	
2	
1	
1	
2	
3	
0	
4	
1	
5	
1	
0	
3	
1	
0	
6	
2	
4	
1	
3	
2	
2	
2	
3	
3	
1	
2	
0	
4	
2	
1	
2	
3	
4	
5	
2	
1	
3	
3	
4	
1	
4	
1	
1	
4	
3	
4	
2	
3	
2	
2	
3	
3	
1	
3	
3	
2	
1	
3	
5	
7	
6	
4	
0	
4	
1	
5	
3	
3	
2	
0	
3	
1	
1	
2	
3	
4	
4	
2	
8	
1	
2	
3	
2	
4	
5	
3	
3	
4	
2	
4	
0	
1	
3	
5	
0	
0	
1	
2	
6	
3	
6	
3	
1	
3	
3	
3	
1	
5	
7	
3	
4	
3	
1	
3	
3	
2	
4	
4	
3	
2	
1	
4	
1	
2	
2	
2	
1	
3	
3	
3	
1	
2	
2	
4	
5	
2	
3	
6	
1	
1	
3	
5	
3	
1	
4	
6	
2	
5	
2	
1	
3	
2	
4	
1	
2	
6	
2	
2	
0	
4	
1	
3	
2	
2	
2	
8	
5	
3	
2	
1	
1	
2	
0	
0	
3	
3	
1	
2	
0	
5	
2	
6	
2	
3	
2	
2	
1	
3	
3	
5	
2	
4	
2	
1	
3	
4	
3	
2	
4	
2	
5	
1	
2	
0	
3	
4	
1	
1	
3	
5	
2	
2	
1	
2	
10	
2	
4	
4	
4	
2	
3	
1	
4	
3	
1	
2	
1	
3	
2	
1	
5	
2	
3	
7	
4	
1	
5	
2	
3	
6	
0	
4	
4	
1	
1	
2	
2	
4	
2	
1	
1	
2	
3	
2	
1	
3	
3	
2	
1	
2	
1	
1	
2	
2	
4	
4	
2	
0	
6	
3	
0	
2	
3	
4	
2	
1	
1	
7	
2	
7	
3	
3	
1	
1	
3	
2	
2	
3	
1	
2	
1	
3	
3	
2	
5	
1	
4	
1	
6	
2	
1	
0	
4	
3	
2	
4	
1	
3	
2	
4	
3	
3	
3	
0	
4	
3	
6	
4	
1	
2	
4	
5	
3	
3	
3	
1	
1	
3	
2	
3	
3	
4	
3	
4	
2	
3	
4	
4	
6	
3	
3	
3	
1	
3	
4	
6	
3	
9	
4	
4	
5	
2	
4	
1	
4	
2	
2	
4	
5	
1	
3	
2	
4	
1	
3	
2	
1	
4	
1	
3	
2	
4	
6	
5	
3	
1	
3	
1	
7	
5	
3	
3	
2	
3	
3	
9	
2	
2	
3	
5	
2	
3	
4	
3	
2	
3	
4	
4	
2	
2	
2	
0	
1	
2	
3	
0	
5	
2	
4	
4	
4	
1	
4	
1	
5	
3	
5	
3	
0	
1	
2	
1	
3	
3	
0	
3	
3	
1	
1	
4	
4	
3	
3	
3	
1	
0	
3	
3	
1	
5	
3	
3	
1	
1	
2	
4	
3	
5	
2	
2	
5	
6	
3	
6	
7	
2	
0	
2	
1	
3	
2	
2	
4	
0	
4	
5	
7	
1	
2	
3	
4	
3	
1	
3	
5	
3	
4	
2	
5	
6	
1	
3	
4	
1	
3	
4	
1	
1	
3	
0	
1	
2	
4	
0	
3	
4	
4	
1	
1	
5	
3	
2	
4	
5	
2	
1	
4	
5	
1	
3	
2	
0	
6	
3	
5	
3	
3	
3	
6	
2	
2	
1	
4	
3	
1	
1	
2	
5	
3	
6	
2	
2	
1	
2	
2	
1	
1	
8	
5	
2	
5	
5	
1	
4	
1	
3	
1	
3	
3	
1	
2	
1	
3	
4	
0	
2	
0	
0	
4	
1	
2	
1	
0	
3	
5	
4	
4	
1	
2	
3	
1	
5	
1	
4	
4	
1	
5	
1	
1	
3	
0	
2	
1	
3	
2	
2	
3	
6	
3	
0	
4	
5	
4	
1	
2	
2	
4	
3	
4	
2	
3	
3	
4	
3	
1	
3	
2	
5	
5	
2	
2	
3	
2	
4	
1	
2	
6	
4	
3	
2	
6	
3	
1	
7	
3	
4	
3	
2	
2	
5	
2	
3	
2	
3	
3	
2	
4	
3	
2	
2	
4	
4	
2	
4	
1	
6	
2	
2	
2	
5	
4	
2	
1	
4	
1	
1	
6	
3	
8	
2	
5	
2	
3	
4	
2	
1	
2	
7	
6	
2	
2	
4	
5	
2	
1	
3	
2	
3	
0	
6	
1	
2	
4	
1	
3	
7	
2	
5	
6	
2	
2	
5	
6	
3	
4	
4	
2	
4	
4	
3	
3	
4	
6	
3	
1	
3	
5	
1	
1	
0	
3	
2	
3	
2	
3	
3	
2	
3	
0	
4	
2	
3	
3	
2	
2	
4	
0	
4	
2	
2	
3	
1	
4	
6	
6	
1	
3	
2	
1	
5	
3	
1	
0	
0	
2	
0	
6	
2	
0	
4	
2	
6	
1	
3	
2	
2	
2	
0	
1	
1	
1	
3	
2	
0	
1	
4	
5	
2	
3	
0	
2	
4	
4	
3	
4	
3	
3	
6	
0	
1	
4	
4	
2	
6	
2	
1	
5	
5	
1	
4	
3	
5	
3	
1	
4	
4	
4	
2	
1	
3	
2	
3	
4	
4	
2	
5	
3	
2	
4	
4	
0	
4	
3	
0	
1	
4	
2	
3	
4	
1	
1	
2	
5	
2	
3	
4	
3	
3	
4	
4	
1	
2	
5	
2	
3	
4	
2	
0	
5	
3	
6	
3	
4	
5	
2	
6	
6	
2	
2	
2	
4	
6	
2	
2	
2	
1	
5	
4	
2	
3	
2	
0	
2	
3	
3	
1	
1	
3	
1	
1	
2	
4	
2	
3	
1	
4	
3	
3	
7	
1	
4	
2	
8	
2	
3	
7	
1	
4	
2	
2	
5	
4	
1	
3	
2	
4	
5	
2	
3	
5	
4	
3	
1	
1	
5	
2	
3	
3	
1	
0	
1	
2	
2	
1	
4	
3	
4	
3	
3	
2	
7	
4	
5	
0	
5	
2	
2	
3	
4	
3	
4	
1	
2	
4	
2	
3	
1	
5	
1	
4	
1	
4	
2	
2	
3	
3	
9	
3	
2	
8	
1	
3	
2	
3	
4	
6	
1	
4	
2	
4	
4	
3	
1	
4	
5	
5	
2	
1	
1	
0	
2	
0	
4	
3	
2	
2	
3	
2	
7	
3	
3	
7	
2	
4	
2	
1	
2	
5	
1	
1	
3	
2	
1	
1	
2	
3	
1	
4	
3	
6	
3	
0	
2	
3	
1	
2	
4	
4	
2	
3	
2	
1	
3	
3	
3	
6	
2	
6	
1	
0	
3	
5	
3	
2	
3	
3	
2	
1	
6	
1	
3	
2	
1	
2	
3	
2	
5	
3	
1	
4	
3	
4	
3	
4	
2	
2	
0	
3	
3	
4	
3	
4	
3	
1	
4	
0	
2	
4	
4	
4	
1	
3	
3	
4	
2	
1	
2	
3	
8	
2	
3	
2	
2	
5	
1	
3	
4	
3	
1	
2	
2	
3	
4	
4	
3	
2	
0	
1	
4	
2	
4	
1	
1	
1	
1	
4	
6	
3	
2	
4	
1	
8	
3	
7	
2	
3	
2	
7	
2	
0	
1	
2	
1	
4	
3	
1	
2	
3	
3	
3	
5	
1	
4	
4	
4	
1	
6	
2	
4	
1	
2	
4	
5	
1	
3	
3	
1	
2	
1	
1	
2	
3	
5	
3	
3	
2	
3	
0	
0	
3	
4	
1	
2	
3	
6	
7	
2	
6	
3	
4	
5	
2	
2	
3	
5	
2	
3	
1	
0	
0	
7	
0	
0	
4	
4	
3	
3	
5	
2	
2	
2	
1	
3	
4	
3	
1	
1	
3	
2	
7	
1	
0	
4	
4	
1	
2	
4	
5	
2	
2	
1	
2	
2	
3	
2	
4	
0	
2	
5	
1	
3	
3	
2	
2	
4	
1	
9	
4	
3	
9	
2	
5	
0	
1	
3	
3	
3	
3	
2	
2	
3	
4	
3	
5	
3	
4	
2	
4	
3	
5	
1	
4	
4	
1	
3	
2	
1	
5	
3	
2	
0	
1	
2	
2	
6	
0	
3	
4	
1	
4	
1	
4	
4	
1	
2	
3	
3	
2	
2	
4	
2	
1	
2	
2	
4	
4	
8	
1	
7	
1	
3	
5	
1	
2	
3	
2	
3	
1	
1	
1	
6	
2	
4	
1	
1	
1	
3	
1	
2	
2	
2	
2	
2	
3	
2	
1	
8	
0	
2	
1	
6	
1	
3	
3	
3	
0	
2	
1	
2	
1	
2	
1	
3	
2	
2	
0	
1	
2	
3	
2	
2	
6	
0	
2	
2	
1	
5	
6	
2	
2	
4	
2	
3	
4	
0	
1	
4	
2	
1	
1	
1	
3	
3	
4	
3	
1	
1	
3	
4	
3	
2	
2	
2	
7	
3	
3	
3	
2	
3	
3	
3	
3	
4	
4	
3	
3	
0	
5	
4	
3	
4	
2	
3	
1	
3	
2	
1	
0	
3	
4	
1	
0	
4	
3	
4	
3	
4	
3	
2	
8	
0	
0	
6	
7	
2	
1	
2	
4	
5	
1	
2	
3	
5	
3	
1	
6	
1	
1	
1	
2	
5	
3	
4	
6	
2	
2	
4	
6	
3	
1	
2	
2	
3	
3	
3	
0	
3	
2	
5	
3	
2	
4	
2	
2	
2	
2	
3	
6	
4	
0	
1	
3	
3	
3	
4	
2	
1	
3	
2	
1	
4	
0	
4	
1	
7	
2	
1	
1	
3	
2	
3	
4	
2	
8	
3	
1	
3	
2	
1	
0	
1	
4	
4	
2	
3	
2	
2	
1	
4	
5	
0	
2	
2	
2	
2	
5	
2	
4	
5	
1	
5	
3	
4	
3	
2	
7	
4	
2	
5	
2	
4	
1	
6	
2	
4	
3	
1	
3	
1	
5	
2	
3	
3	
2	
2	
0	
4	
0	
6	
3	
6	
3	
2	
6	
3	
1	
4	
5	
2	
6	
1	
6	
2	
4	
0	
8	
4	
2	
0	
0	
4	
4	
6	
0	
0	
6	
1	
3	
4	
4	
2	
4	
9	
3	
1	
2	
1	
5	
1	
2	
3	
1	
2	
4	
4	
3	
4	
4	
4	
3	
4	
3	
3	
1	
6	
2	
2	
0	
2	
1	
1	
2	
2	
2	
2	
3	
1	
4	
3	
4	
3	
3	
3	
0	
2	
3	
4	
1	
0	
4	
2	
4	
2	
3	
3	
2	
2	
4	
6	
1	
2	
3	
3	
1	
1	
3	
1	
1	
0	
0	
0	
0	
0	
0	
0	
0	
0	
0	
0	
0	
0	
0	
0	
0	
0	
0	
0	
0	
0	
0	
0	
