#PicoHarp 300  Histogram Data			03/13/2023 03:24:38 PM
#channels per curve
7813
#display curve no.
0	
#memory block no.
0	
#ns/channel
0.1280	
#counts
3	
2	
4	
2	
4	
2	
4	
3	
2	
3	
5	
5	
3	
4	
2	
6	
6	
6	
3	
2	
2	
2	
1	
3	
3	
2	
4	
4	
1	
3	
1	
1	
4	
2	
3	
4	
1	
2	
7	
6	
4	
4	
3	
5	
3	
1	
4	
4	
1	
6	
6	
2	
1	
3	
4	
3	
3	
1	
3	
2	
2	
1	
2	
2	
2	
1	
4	
11	
2	
5	
7	
2	
3	
6	
3	
2	
5	
1	
0	
7	
4	
7	
3	
2	
4	
3	
3	
2	
7	
4	
5	
4	
2	
5	
2	
3	
1	
5	
2	
2	
2	
3	
1	
4	
6	
1	
0	
0	
3	
3	
4	
3	
7	
1	
4	
3	
2	
4	
2	
1	
4	
2	
3	
6	
6	
2	
2	
3	
3	
2	
2	
2	
1	
0	
0	
2	
1	
4	
5	
5	
2	
3	
3	
5	
1	
5	
4	
5	
2	
2	
1	
1	
2	
2	
6	
2	
3	
1	
1	
2	
3	
0	
5	
4	
4	
1	
1	
7	
4	
3	
3	
1	
5	
3	
4	
2	
5	
7	
1	
5	
4	
5	
2	
5	
4	
6	
4	
4	
5	
4	
2	
5	
4	
1	
3	
4	
3	
2	
0	
4	
1	
4	
3	
2	
3	
6	
7	
3	
5	
1	
4	
9	
3	
7	
4	
1	
6	
0	
5	
6	
0	
6	
3	
4	
0	
6	
3	
2	
1	
2	
1	
6	
2	
6	
6	
1	
2	
9	
6	
11	
16	
33	
73	
132	
213	
400	
541	
702	
848	
906	
939	
975	
1000	
942	
982	
1000	
949	
905	
961	
926	
913	
897	
929	
916	
899	
877	
833	
878	
905	
885	
861	
823	
806	
800	
800	
850	
812	
769	
802	
809	
808	
805	
748	
810	
721	
812	
762	
779	
748	
682	
757	
712	
761	
639	
766	
709	
662	
668	
661	
683	
681	
661	
648	
685	
687	
651	
623	
655	
601	
671	
620	
608	
632	
633	
593	
613	
616	
596	
603	
628	
614	
563	
578	
559	
542	
557	
553	
533	
585	
598	
573	
527	
534	
535	
561	
502	
491	
532	
510	
539	
569	
536	
560	
517	
477	
537	
498	
514	
501	
512	
474	
524	
490	
474	
479	
500	
467	
470	
491	
452	
423	
448	
440	
462	
451	
454	
414	
447	
477	
463	
459	
465	
420	
422	
446	
448	
396	
435	
429	
416	
427	
420	
449	
409	
386	
410	
421	
387	
416	
425	
414	
395	
395	
382	
382	
374	
393	
379	
374	
391	
332	
390	
385	
382	
413	
378	
353	
352	
397	
386	
373	
372	
346	
309	
361	
346	
324	
346	
362	
311	
343	
362	
322	
316	
381	
338	
327	
306	
348	
332	
373	
297	
373	
337	
287	
343	
317	
315	
307	
333	
311	
327	
347	
316	
293	
270	
273	
300	
298	
275	
306	
321	
267	
273	
281	
298	
302	
312	
278	
303	
260	
286	
268	
261	
322	
298	
282	
268	
299	
285	
294	
267	
291	
250	
282	
270	
269	
254	
272	
264	
279	
270	
260	
264	
269	
245	
259	
211	
273	
234	
252	
275	
269	
259	
272	
248	
243	
268	
199	
228	
232	
231	
252	
226	
243	
245	
245	
210	
252	
220	
244	
223	
213	
217	
235	
244	
231	
254	
230	
218	
273	
236	
223	
246	
219	
223	
235	
215	
231	
203	
211	
209	
210	
201	
227	
189	
192	
196	
202	
195	
205	
183	
218	
206	
203	
206	
207	
207	
190	
200	
190	
222	
191	
189	
202	
191	
194	
213	
188	
184	
184	
206	
188	
190	
207	
191	
177	
202	
198	
168	
176	
205	
184	
212	
173	
184	
176	
174	
187	
167	
163	
183	
151	
187	
189	
168	
156	
164	
165	
180	
146	
163	
167	
157	
149	
151	
165	
177	
166	
153	
154	
156	
152	
154	
164	
163	
154	
170	
169	
172	
141	
155	
152	
159	
159	
149	
149	
145	
166	
150	
179	
161	
164	
162	
150	
149	
170	
141	
147	
153	
150	
150	
147	
153	
143	
154	
133	
157	
146	
149	
150	
138	
159	
131	
157	
158	
140	
115	
142	
138	
144	
136	
125	
135	
139	
138	
148	
146	
132	
143	
109	
142	
119	
138	
125	
143	
125	
125	
129	
122	
122	
126	
142	
144	
117	
120	
123	
150	
111	
119	
125	
123	
126	
112	
112	
114	
138	
134	
118	
130	
122	
130	
124	
108	
129	
120	
133	
125	
111	
126	
117	
141	
107	
122	
107	
124	
112	
121	
118	
114	
120	
108	
110	
113	
99	
126	
108	
106	
97	
114	
109	
104	
113	
100	
112	
106	
119	
127	
104	
145	
109	
109	
126	
114	
107	
92	
100	
104	
122	
105	
97	
129	
101	
87	
85	
111	
111	
98	
93	
104	
117	
96	
102	
83	
92	
88	
100	
93	
104	
104	
104	
106	
86	
116	
97	
93	
113	
101	
96	
103	
89	
104	
79	
97	
95	
107	
83	
99	
81	
94	
99	
78	
99	
96	
99	
91	
79	
87	
85	
94	
102	
98	
97	
84	
72	
109	
84	
102	
103	
88	
95	
79	
120	
97	
90	
95	
86	
92	
80	
91	
88	
89	
85	
94	
78	
94	
86	
85	
79	
72	
89	
77	
82	
80	
80	
85	
76	
72	
81	
79	
76	
96	
78	
103	
75	
70	
85	
91	
72	
85	
93	
86	
54	
78	
82	
69	
63	
76	
90	
79	
74	
90	
78	
89	
73	
72	
78	
65	
87	
79	
75	
70	
86	
86	
75	
86	
70	
80	
70	
67	
66	
79	
70	
73	
66	
67	
72	
58	
74	
77	
68	
65	
72	
59	
80	
75	
81	
83	
74	
61	
73	
58	
59	
64	
73	
69	
70	
56	
79	
70	
75	
62	
62	
69	
60	
76	
80	
58	
66	
58	
65	
58	
77	
61	
66	
75	
75	
59	
59	
61	
59	
55	
50	
73	
68	
57	
71	
75	
61	
65	
74	
55	
59	
72	
71	
79	
71	
56	
68	
58	
66	
65	
54	
59	
58	
51	
60	
47	
56	
66	
57	
68	
54	
54	
60	
39	
51	
76	
56	
64	
56	
58	
69	
66	
61	
57	
68	
54	
64	
57	
52	
66	
47	
67	
52	
60	
47	
71	
45	
47	
52	
50	
65	
55	
54	
50	
45	
48	
65	
56	
58	
62	
49	
49	
55	
57	
52	
58	
55	
45	
50	
56	
52	
68	
44	
40	
57	
64	
44	
62	
44	
49	
55	
43	
32	
50	
51	
58	
59	
50	
51	
45	
54	
54	
42	
60	
49	
51	
49	
51	
52	
44	
43	
55	
45	
49	
47	
47	
50	
58	
58	
46	
55	
56	
48	
36	
52	
43	
41	
46	
47	
39	
44	
49	
54	
49	
48	
54	
50	
45	
44	
60	
48	
56	
43	
48	
48	
48	
51	
45	
53	
42	
48	
56	
47	
44	
54	
44	
45	
56	
41	
60	
43	
41	
53	
50	
46	
45	
47	
65	
45	
41	
56	
52	
54	
48	
34	
38	
43	
47	
45	
43	
41	
61	
49	
50	
51	
60	
46	
50	
44	
39	
46	
44	
46	
31	
41	
47	
36	
40	
44	
49	
37	
44	
36	
42	
41	
35	
33	
38	
32	
29	
45	
42	
44	
46	
59	
50	
45	
30	
50	
32	
41	
41	
31	
54	
35	
45	
28	
51	
50	
43	
29	
41	
46	
36	
36	
34	
45	
35	
44	
36	
62	
27	
36	
42	
35	
43	
38	
44	
29	
38	
39	
50	
31	
28	
38	
30	
37	
42	
43	
38	
31	
33	
51	
35	
34	
29	
27	
31	
27	
29	
23	
31	
35	
32	
28	
41	
39	
31	
40	
32	
23	
47	
36	
43	
40	
30	
40	
37	
31	
36	
40	
31	
34	
24	
31	
33	
26	
35	
31	
33	
41	
38	
33	
33	
31	
37	
32	
34	
31	
35	
38	
31	
34	
33	
35	
28	
27	
41	
26	
27	
33	
25	
35	
26	
39	
25	
32	
34	
35	
34	
32	
30	
23	
42	
36	
32	
34	
28	
39	
34	
29	
31	
36	
31	
20	
32	
35	
35	
23	
29	
36	
30	
30	
24	
27	
32	
33	
37	
33	
31	
30	
32	
30	
36	
25	
33	
38	
28	
38	
41	
35	
28	
32	
20	
32	
26	
24	
27	
26	
30	
36	
30	
44	
26	
29	
18	
34	
30	
43	
24	
37	
29	
32	
25	
24	
22	
29	
18	
22	
22	
23	
26	
30	
31	
24	
35	
25	
22	
34	
22	
27	
24	
32	
18	
26	
28	
35	
25	
19	
27	
26	
25	
31	
32	
22	
31	
26	
24	
27	
22	
19	
31	
24	
26	
30	
23	
24	
23	
27	
29	
24	
19	
25	
29	
21	
30	
17	
20	
32	
31	
33	
19	
29	
25	
28	
22	
33	
16	
30	
17	
35	
22	
27	
27	
28	
30	
19	
24	
33	
30	
22	
28	
27	
23	
31	
23	
29	
19	
26	
20	
16	
22	
30	
17	
27	
32	
22	
20	
23	
28	
22	
29	
25	
21	
26	
21	
26	
29	
19	
12	
21	
22	
27	
25	
25	
22	
34	
22	
27	
21	
26	
26	
20	
26	
27	
19	
28	
26	
21	
19	
30	
29	
24	
13	
32	
22	
22	
14	
27	
20	
22	
19	
14	
29	
10	
25	
21	
31	
26	
26	
26	
16	
29	
20	
21	
24	
23	
18	
15	
23	
28	
26	
21	
21	
22	
24	
14	
18	
23	
19	
14	
16	
22	
24	
20	
22	
18	
21	
19	
30	
23	
20	
14	
23	
20	
22	
20	
16	
19	
16	
15	
31	
18	
33	
10	
19	
23	
21	
12	
19	
29	
23	
13	
29	
28	
25	
25	
29	
23	
11	
12	
21	
20	
27	
13	
20	
15	
10	
16	
18	
21	
14	
11	
22	
25	
22	
12	
19	
16	
18	
20	
16	
21	
19	
18	
25	
17	
21	
13	
23	
15	
22	
23	
21	
22	
16	
16	
18	
15	
18	
22	
16	
21	
24	
22	
11	
20	
15	
11	
22	
18	
18	
20	
17	
20	
15	
14	
16	
12	
16	
27	
25	
28	
15	
18	
20	
15	
17	
13	
23	
16	
14	
17	
15	
18	
27	
24	
21	
16	
20	
19	
15	
9	
17	
22	
13	
14	
28	
18	
23	
21	
15	
11	
22	
16	
19	
16	
14	
19	
20	
16	
15	
20	
22	
14	
18	
16	
20	
12	
10	
21	
16	
16	
21	
15	
18	
16	
22	
15	
8	
19	
21	
15	
19	
18	
11	
23	
22	
12	
13	
11	
17	
15	
15	
20	
16	
22	
9	
23	
22	
12	
21	
17	
16	
18	
19	
14	
13	
12	
18	
19	
17	
18	
13	
16	
20	
10	
14	
20	
14	
12	
18	
21	
15	
12	
11	
22	
20	
15	
25	
14	
18	
7	
19	
17	
14	
12	
14	
17	
15	
16	
14	
19	
15	
21	
12	
14	
15	
13	
16	
12	
16	
16	
20	
14	
8	
13	
14	
22	
12	
13	
6	
19	
13	
17	
9	
19	
15	
11	
20	
12	
19	
13	
9	
11	
16	
11	
14	
20	
19	
16	
16	
17	
20	
16	
23	
13	
10	
13	
14	
12	
16	
15	
19	
21	
11	
16	
13	
15	
19	
18	
15	
9	
15	
15	
11	
18	
21	
20	
11	
11	
12	
18	
13	
7	
18	
18	
13	
6	
17	
11	
15	
11	
10	
15	
14	
8	
8	
17	
18	
21	
16	
12	
10	
18	
12	
14	
10	
14	
12	
13	
15	
7	
13	
18	
13	
12	
13	
14	
14	
21	
16	
8	
17	
17	
14	
16	
11	
15	
22	
15	
11	
19	
17	
16	
16	
7	
11	
12	
24	
6	
15	
10	
20	
17	
15	
11	
20	
20	
20	
14	
8	
12	
12	
15	
8	
21	
9	
10	
12	
6	
10	
21	
8	
6	
13	
18	
15	
12	
15	
16	
13	
10	
18	
12	
12	
16	
12	
19	
15	
13	
17	
18	
15	
17	
7	
9	
12	
11	
14	
15	
14	
11	
14	
17	
13	
9	
10	
11	
8	
19	
16	
15	
18	
17	
14	
20	
11	
7	
8	
18	
7	
14	
17	
9	
18	
13	
20	
8	
17	
12	
12	
9	
8	
15	
11	
8	
12	
14	
11	
13	
16	
10	
12	
13	
19	
16	
10	
10	
11	
16	
4	
7	
8	
14	
14	
11	
8	
14	
13	
9	
15	
11	
13	
16	
10	
19	
9	
15	
8	
13	
13	
16	
11	
6	
9	
13	
13	
14	
12	
15	
14	
8	
14	
12	
13	
11	
12	
12	
14	
19	
11	
12	
13	
10	
11	
8	
14	
11	
16	
10	
17	
13	
17	
7	
9	
14	
16	
13	
12	
8	
8	
13	
19	
15	
7	
10	
10	
7	
9	
9	
7	
9	
15	
10	
7	
15	
5	
10	
8	
9	
6	
10	
15	
12	
14	
6	
17	
9	
5	
6	
4	
13	
9	
14	
8	
15	
12	
13	
13	
13	
18	
9	
5	
12	
11	
11	
10	
8	
10	
8	
9	
10	
10	
7	
10	
9	
9	
7	
11	
10	
9	
9	
8	
10	
16	
13	
10	
12	
12	
12	
11	
8	
7	
6	
15	
19	
9	
12	
7	
15	
10	
8	
10	
7	
16	
5	
11	
11	
6	
6	
9	
18	
15	
13	
8	
14	
10	
7	
4	
8	
5	
14	
10	
10	
12	
13	
9	
7	
17	
7	
10	
11	
7	
13	
12	
9	
11	
8	
9	
7	
15	
3	
10	
7	
9	
10	
9	
6	
5	
14	
9	
11	
9	
8	
3	
13	
11	
7	
14	
15	
14	
12	
7	
15	
5	
14	
8	
7	
9	
6	
9	
5	
7	
13	
14	
13	
11	
5	
12	
10	
12	
6	
9	
12	
9	
6	
14	
7	
6	
7	
11	
6	
10	
7	
10	
9	
9	
10	
8	
12	
8	
5	
8	
11	
7	
14	
4	
9	
10	
6	
4	
4	
13	
7	
8	
6	
9	
9	
10	
12	
7	
18	
7	
16	
7	
7	
12	
6	
7	
6	
14	
10	
12	
7	
9	
7	
7	
14	
7	
9	
12	
10	
9	
14	
12	
6	
10	
10	
13	
2	
13	
16	
10	
15	
9	
9	
8	
7	
8	
12	
5	
9	
9	
13	
15	
4	
9	
18	
11	
12	
8	
7	
12	
12	
12	
8	
8	
6	
8	
13	
11	
4	
8	
10	
3	
0	
11	
2	
5	
7	
13	
9	
8	
12	
10	
7	
9	
7	
8	
6	
9	
10	
11	
8	
8	
7	
12	
14	
6	
6	
10	
6	
5	
13	
4	
7	
11	
5	
13	
5	
6	
11	
14	
8	
15	
9	
8	
8	
8	
4	
9	
10	
8	
4	
13	
12	
5	
10	
9	
11	
8	
9	
14	
12	
10	
12	
11	
9	
10	
12	
8	
8	
7	
11	
7	
8	
8	
6	
4	
9	
12	
7	
11	
4	
15	
7	
3	
7	
13	
14	
12	
10	
7	
9	
7	
7	
7	
7	
8	
9	
8	
8	
7	
9	
7	
6	
6	
9	
8	
6	
17	
7	
9	
7	
8	
4	
7	
9	
7	
10	
9	
10	
4	
5	
9	
15	
12	
8	
7	
6	
11	
5	
5	
8	
4	
7	
9	
7	
8	
4	
6	
9	
6	
6	
8	
6	
14	
10	
7	
2	
9	
7	
14	
17	
9	
10	
7	
10	
7	
7	
7	
7	
9	
3	
6	
11	
7	
7	
10	
5	
3	
8	
4	
7	
2	
8	
10	
4	
6	
10	
10	
7	
8	
4	
8	
7	
11	
11	
4	
7	
7	
10	
10	
6	
6	
8	
5	
7	
11	
6	
3	
5	
6	
3	
11	
4	
6	
8	
8	
9	
8	
7	
11	
10	
5	
5	
9	
11	
9	
11	
7	
7	
9	
7	
3	
8	
7	
4	
7	
9	
7	
6	
7	
6	
3	
14	
9	
7	
7	
7	
6	
10	
7	
6	
11	
7	
9	
9	
7	
6	
6	
17	
11	
10	
7	
10	
7	
10	
10	
4	
9	
10	
8	
6	
7	
6	
7	
8	
8	
5	
8	
3	
14	
3	
7	
7	
12	
6	
8	
6	
14	
7	
8	
7	
9	
11	
6	
10	
14	
10	
7	
7	
10	
8	
7	
10	
9	
6	
4	
4	
5	
6	
4	
5	
11	
6	
6	
9	
10	
7	
7	
3	
9	
8	
6	
7	
9	
7	
7	
3	
9	
9	
7	
7	
8	
9	
7	
4	
5	
4	
8	
9	
12	
10	
3	
9	
2	
1	
11	
5	
9	
9	
7	
5	
4	
8	
7	
7	
5	
9	
5	
2	
10	
6	
9	
4	
8	
6	
6	
4	
10	
4	
8	
5	
11	
14	
9	
8	
5	
5	
4	
3	
5	
7	
4	
8	
9	
5	
8	
6	
2	
6	
4	
8	
8	
5	
5	
5	
13	
8	
8	
4	
9	
8	
5	
7	
8	
8	
8	
8	
4	
7	
8	
9	
9	
6	
6	
7	
9	
7	
4	
5	
7	
5	
4	
10	
8	
10	
6	
7	
3	
6	
4	
3	
6	
10	
6	
7	
6	
4	
10	
7	
8	
8	
7	
5	
11	
7	
7	
2	
7	
8	
8	
7	
3	
7	
6	
8	
6	
4	
6	
4	
3	
2	
4	
3	
9	
6	
7	
8	
8	
11	
10	
6	
6	
5	
4	
10	
4	
9	
6	
7	
5	
11	
9	
7	
8	
7	
9	
6	
3	
5	
8	
8	
6	
4	
3	
7	
5	
7	
7	
5	
5	
9	
8	
1	
3	
9	
6	
3	
5	
2	
6	
6	
5	
5	
8	
9	
11	
4	
10	
3	
8	
8	
7	
9	
8	
7	
10	
6	
8	
9	
6	
7	
7	
9	
3	
6	
7	
3	
6	
4	
7	
8	
7	
6	
4	
5	
9	
8	
10	
3	
5	
8	
5	
7	
6	
4	
4	
6	
4	
4	
6	
7	
5	
7	
6	
7	
4	
9	
8	
10	
7	
7	
8	
9	
8	
11	
9	
4	
9	
2	
6	
5	
5	
13	
10	
6	
5	
6	
7	
5	
4	
10	
5	
11	
4	
5	
10	
3	
5	
3	
11	
5	
7	
5	
8	
6	
2	
8	
10	
3	
10	
8	
8	
8	
11	
8	
4	
5	
6	
7	
4	
3	
3	
9	
10	
6	
10	
6	
6	
7	
4	
7	
6	
7	
10	
10	
8	
5	
9	
7	
7	
4	
8	
5	
9	
6	
6	
8	
5	
4	
11	
7	
4	
5	
7	
4	
7	
6	
4	
7	
6	
2	
7	
4	
5	
7	
6	
4	
10	
5	
6	
7	
8	
7	
11	
4	
2	
5	
6	
7	
8	
4	
6	
5	
4	
3	
2	
6	
5	
8	
9	
7	
5	
5	
3	
3	
6	
7	
7	
9	
9	
5	
5	
3	
8	
2	
7	
6	
9	
4	
2	
6	
6	
9	
7	
4	
5	
3	
2	
8	
4	
6	
6	
6	
5	
8	
6	
5	
8	
8	
2	
7	
6	
4	
4	
6	
5	
7	
6	
4	
6	
7	
10	
4	
6	
3	
11	
7	
5	
5	
5	
4	
2	
5	
2	
6	
10	
14	
2	
5	
5	
7	
6	
4	
1	
8	
5	
3	
3	
6	
6	
6	
8	
9	
10	
5	
3	
5	
9	
4	
4	
1	
5	
6	
9	
7	
5	
5	
2	
5	
5	
6	
5	
3	
9	
7	
5	
7	
5	
1	
4	
6	
4	
4	
7	
4	
2	
8	
5	
7	
8	
1	
6	
6	
3	
3	
8	
4	
8	
4	
11	
5	
8	
1	
5	
6	
5	
2	
3	
7	
9	
3	
10	
11	
7	
4	
7	
8	
4	
6	
3	
9	
8	
5	
5	
5	
6	
9	
6	
3	
6	
1	
7	
5	
10	
5	
6	
7	
6	
4	
8	
7	
4	
6	
7	
4	
3	
7	
6	
2	
8	
9	
6	
7	
5	
2	
12	
8	
3	
5	
7	
3	
10	
8	
11	
6	
6	
3	
6	
5	
5	
7	
5	
1	
3	
5	
5	
7	
5	
4	
8	
7	
6	
6	
9	
9	
4	
6	
9	
3	
4	
6	
4	
5	
3	
4	
8	
3	
8	
6	
1	
9	
3	
9	
10	
7	
9	
5	
6	
4	
6	
6	
5	
7	
2	
9	
4	
6	
7	
4	
8	
7	
1	
1	
3	
5	
3	
2	
7	
3	
3	
7	
9	
4	
6	
3	
10	
7	
6	
2	
5	
3	
3	
4	
8	
2	
2	
6	
3	
8	
5	
7	
5	
3	
10	
5	
4	
8	
6	
10	
8	
7	
6	
6	
6	
7	
7	
8	
2	
7	
6	
4	
2	
2	
5	
7	
5	
3	
4	
8	
9	
1	
2	
4	
4	
4	
5	
5	
4	
6	
4	
7	
4	
7	
5	
1	
8	
2	
5	
4	
5	
5	
4	
7	
9	
3	
4	
11	
6	
7	
6	
7	
3	
3	
5	
3	
4	
6	
6	
7	
4	
4	
3	
7	
2	
6	
3	
4	
3	
4	
7	
9	
7	
6	
3	
3	
5	
3	
3	
5	
3	
3	
1	
5	
9	
8	
6	
8	
5	
4	
4	
5	
8	
5	
6	
8	
8	
4	
9	
2	
11	
5	
6	
7	
5	
4	
6	
4	
5	
5	
6	
5	
6	
5	
4	
6	
6	
3	
3	
3	
5	
6	
2	
7	
4	
12	
2	
7	
7	
13	
3	
6	
7	
5	
7	
7	
5	
10	
10	
5	
7	
6	
4	
5	
6	
8	
8	
8	
10	
4	
5	
6	
4	
6	
5	
3	
10	
1	
5	
3	
1	
6	
2	
4	
1	
4	
5	
1	
6	
2	
3	
2	
0	
4	
7	
7	
7	
3	
4	
4	
6	
5	
4	
3	
4	
2	
4	
8	
6	
3	
9	
5	
10	
5	
8	
3	
3	
7	
6	
5	
4	
4	
5	
6	
6	
5	
3	
6	
2	
1	
3	
4	
6	
7	
2	
6	
2	
4	
6	
1	
10	
7	
8	
3	
4	
5	
7	
2	
5	
6	
2	
6	
3	
5	
2	
3	
3	
2	
9	
3	
5	
8	
2	
1	
2	
5	
2	
3	
8	
8	
5	
4	
6	
4	
4	
3	
3	
2	
6	
5	
8	
4	
8	
5	
8	
7	
8	
3	
3	
4	
6	
3	
3	
2	
0	
11	
3	
5	
3	
9	
1	
6	
3	
8	
3	
2	
4	
6	
5	
2	
6	
2	
7	
4	
4	
7	
4	
5	
7	
2	
7	
1	
2	
5	
5	
6	
4	
7	
6	
5	
7	
6	
5	
5	
6	
6	
4	
6	
8	
1	
4	
3	
3	
4	
7	
4	
7	
3	
6	
7	
3	
7	
4	
3	
7	
3	
4	
6	
3	
8	
6	
5	
1	
2	
9	
3	
2	
2	
7	
6	
1	
8	
4	
3	
4	
2	
3	
2	
2	
3	
4	
6	
5	
3	
7	
8	
5	
3	
2	
3	
6	
4	
4	
7	
3	
7	
4	
6	
5	
3	
4	
7	
6	
9	
4	
6	
4	
5	
1	
3	
3	
5	
4	
5	
5	
5	
6	
1	
7	
2	
4	
2	
8	
6	
4	
2	
4	
4	
5	
6	
3	
7	
5	
3	
7	
7	
10	
7	
5	
4	
8	
1	
7	
5	
7	
6	
4	
7	
4	
4	
8	
7	
1	
2	
4	
3	
6	
3	
6	
2	
4	
4	
4	
4	
5	
4	
5	
2	
6	
4	
5	
2	
5	
3	
6	
6	
1	
3	
1	
5	
6	
4	
9	
4	
4	
5	
2	
5	
3	
5	
5	
3	
7	
5	
5	
6	
3	
4	
7	
7	
5	
6	
3	
5	
3	
2	
3	
3	
4	
5	
7	
2	
3	
4	
4	
4	
5	
5	
3	
9	
4	
5	
6	
5	
1	
4	
8	
4	
4	
5	
3	
5	
4	
3	
3	
3	
1	
3	
3	
6	
5	
5	
3	
4	
8	
5	
3	
5	
3	
9	
2	
7	
7	
7	
7	
2	
2	
4	
3	
1	
6	
5	
4	
7	
4	
4	
2	
3	
6	
6	
6	
3	
4	
5	
5	
2	
6	
5	
4	
3	
5	
5	
9	
1	
6	
6	
6	
4	
5	
5	
5	
2	
3	
5	
3	
4	
7	
7	
3	
4	
3	
9	
5	
6	
3	
4	
4	
3	
6	
7	
2	
4	
7	
3	
4	
6	
1	
5	
4	
3	
3	
4	
3	
5	
4	
5	
6	
3	
8	
2	
2	
7	
8	
3	
4	
9	
8	
4	
2	
7	
7	
6	
8	
3	
5	
3	
9	
4	
4	
2	
2	
1	
2	
5	
8	
0	
7	
4	
8	
7	
1	
9	
5	
5	
5	
6	
4	
6	
5	
1	
4	
4	
3	
1	
2	
4	
7	
5	
4	
2	
6	
3	
5	
4	
6	
6	
2	
2	
4	
6	
3	
2	
0	
6	
8	
3	
3	
5	
2	
5	
2	
7	
3	
0	
2	
5	
3	
5	
5	
7	
2	
4	
3	
3	
3	
6	
7	
3	
3	
3	
2	
6	
3	
2	
4	
3	
5	
7	
6	
5	
6	
4	
5	
5	
6	
1	
3	
5	
6	
1	
3	
3	
8	
5	
5	
7	
3	
3	
1	
3	
6	
2	
4	
5	
5	
9	
0	
3	
2	
2	
5	
2	
3	
8	
5	
2	
6	
3	
5	
4	
1	
5	
2	
4	
2	
8	
3	
8	
10	
4	
4	
5	
3	
3	
1	
3	
5	
7	
0	
6	
1	
3	
9	
2	
2	
6	
3	
3	
3	
1	
4	
4	
6	
6	
3	
8	
3	
1	
8	
1	
6	
5	
6	
5	
2	
4	
3	
1	
3	
1	
9	
3	
4	
4	
9	
4	
6	
2	
5	
7	
3	
9	
1	
4	
3	
6	
7	
6	
3	
5	
7	
2	
4	
5	
5	
4	
2	
4	
3	
0	
4	
5	
3	
7	
6	
3	
6	
7	
3	
5	
5	
5	
4	
2	
6	
5	
5	
4	
5	
4	
0	
3	
3	
4	
6	
3	
1	
8	
2	
5	
1	
6	
4	
4	
3	
4	
5	
4	
6	
5	
5	
2	
5	
3	
6	
6	
4	
1	
3	
2	
4	
1	
3	
1	
5	
3	
2	
3	
6	
4	
5	
5	
3	
7	
3	
2	
7	
4	
6	
5	
6	
6	
3	
8	
6	
5	
2	
2	
3	
5	
6	
4	
6	
4	
0	
6	
5	
2	
6	
9	
5	
2	
6	
7	
5	
5	
4	
3	
7	
2	
3	
8	
3	
4	
6	
2	
2	
7	
1	
6	
5	
3	
5	
0	
4	
2	
5	
5	
5	
3	
8	
2	
5	
5	
2	
8	
1	
1	
3	
8	
5	
2	
5	
2	
5	
8	
7	
2	
3	
5	
5	
6	
3	
2	
6	
3	
3	
3	
6	
6	
1	
3	
5	
3	
3	
5	
2	
9	
4	
3	
4	
6	
6	
6	
1	
5	
4	
1	
6	
3	
7	
1	
4	
2	
6	
2	
3	
4	
6	
2	
4	
2	
5	
2	
4	
3	
4	
8	
4	
8	
3	
5	
2	
5	
6	
6	
6	
6	
6	
3	
3	
5	
4	
2	
5	
4	
3	
5	
2	
1	
4	
6	
3	
2	
3	
4	
1	
0	
3	
1	
7	
7	
3	
7	
2	
3	
6	
2	
5	
6	
4	
2	
3	
3	
4	
8	
8	
3	
5	
3	
5	
2	
3	
6	
1	
3	
2	
3	
8	
2	
3	
3	
3	
7	
3	
2	
3	
1	
7	
2	
7	
5	
4	
3	
5	
4	
5	
4	
6	
1	
1	
1	
7	
6	
7	
3	
5	
0	
7	
1	
5	
6	
5	
1	
8	
4	
12	
9	
0	
6	
2	
1	
6	
4	
4	
6	
7	
5	
3	
4	
4	
5	
3	
4	
4	
4	
7	
7	
5	
4	
4	
5	
2	
3	
7	
10	
3	
7	
4	
3	
6	
6	
1	
4	
3	
2	
2	
2	
3	
3	
2	
5	
3	
2	
3	
5	
8	
3	
8	
2	
3	
4	
3	
7	
2	
3	
2	
6	
5	
2	
2	
1	
2	
4	
8	
7	
5	
4	
6	
4	
5	
4	
5	
6	
7	
5	
6	
0	
7	
3	
0	
4	
3	
3	
4	
6	
7	
2	
2	
4	
3	
1	
5	
1	
5	
5	
4	
1	
6	
5	
5	
3	
4	
3	
6	
6	
3	
6	
3	
4	
3	
5	
3	
4	
8	
5	
5	
3	
6	
3	
4	
4	
7	
2	
5	
3	
1	
5	
4	
4	
2	
4	
6	
8	
2	
4	
5	
5	
5	
5	
1	
3	
6	
3	
0	
5	
2	
3	
4	
2	
3	
4	
1	
3	
1	
0	
2	
2	
3	
8	
3	
5	
5	
4	
4	
6	
3	
3	
2	
5	
8	
3	
4	
5	
3	
6	
6	
3	
4	
2	
4	
1	
3	
4	
5	
2	
6	
4	
4	
2	
3	
6	
2	
6	
1	
1	
2	
3	
5	
4	
3	
6	
7	
5	
3	
6	
2	
3	
3	
3	
2	
4	
7	
3	
4	
4	
2	
6	
4	
4	
4	
4	
7	
3	
5	
3	
4	
4	
6	
2	
7	
7	
5	
4	
6	
3	
8	
4	
3	
5	
5	
4	
5	
4	
3	
3	
2	
3	
6	
0	
5	
3	
5	
5	
5	
1	
2	
6	
4	
6	
1	
1	
1	
5	
3	
6	
2	
2	
3	
4	
2	
2	
5	
1	
4	
5	
6	
5	
6	
6	
5	
8	
4	
8	
6	
6	
5	
6	
5	
2	
6	
3	
7	
4	
5	
3	
6	
4	
2	
5	
3	
3	
5	
3	
5	
6	
6	
4	
0	
4	
4	
6	
8	
5	
2	
2	
4	
5	
5	
4	
5	
6	
0	
3	
6	
0	
4	
4	
8	
7	
6	
2	
3	
4	
7	
2	
4	
2	
6	
6	
3	
4	
7	
8	
5	
5	
6	
4	
4	
3	
9	
3	
2	
1	
3	
5	
6	
3	
3	
6	
1	
3	
3	
2	
2	
8	
3	
4	
7	
2	
3	
2	
3	
4	
4	
3	
3	
4	
3	
4	
3	
5	
3	
3	
3	
6	
3	
4	
8	
4	
2	
1	
2	
5	
8	
5	
6	
4	
6	
4	
3	
4	
6	
0	
5	
7	
2	
5	
2	
7	
1	
5	
3	
4	
5	
2	
7	
3	
3	
0	
5	
4	
2	
3	
5	
1	
2	
3	
1	
2	
2	
4	
6	
3	
3	
4	
3	
5	
4	
2	
3	
6	
6	
3	
4	
2	
5	
2	
1	
4	
6	
2	
1	
6	
5	
3	
2	
3	
3	
3	
5	
3	
4	
8	
5	
3	
2	
6	
2	
3	
3	
6	
3	
5	
4	
8	
7	
4	
1	
3	
4	
5	
3	
8	
3	
2	
4	
3	
0	
4	
4	
5	
6	
4	
3	
8	
3	
4	
3	
6	
7	
7	
4	
4	
4	
2	
0	
3	
5	
6	
3	
1	
4	
2	
6	
3	
2	
5	
3	
6	
3	
2	
6	
4	
6	
2	
7	
2	
3	
3	
7	
3	
3	
0	
3	
2	
6	
4	
2	
4	
2	
1	
3	
3	
3	
3	
4	
0	
5	
8	
6	
4	
0	
3	
1	
4	
7	
1	
1	
4	
7	
3	
5	
6	
3	
3	
2	
3	
5	
3	
3	
2	
4	
4	
4	
3	
3	
2	
4	
2	
4	
1	
2	
8	
2	
3	
3	
6	
4	
2	
3	
1	
3	
2	
3	
4	
5	
8	
2	
2	
1	
4	
7	
5	
3	
2	
3	
2	
2	
2	
3	
5	
1	
5	
4	
4	
4	
5	
7	
2	
4	
3	
2	
4	
2	
6	
4	
1	
3	
4	
6	
4	
1	
3	
7	
7	
4	
5	
5	
5	
0	
4	
3	
2	
5	
3	
2	
2	
1	
4	
2	
3	
1	
2	
7	
3	
4	
5	
5	
0	
5	
5	
3	
6	
4	
3	
4	
3	
4	
4	
4	
6	
0	
4	
4	
7	
1	
0	
8	
4	
1	
1	
2	
4	
1	
3	
6	
2	
5	
5	
7	
4	
3	
4	
10	
3	
0	
3	
7	
4	
7	
5	
1	
1	
0	
3	
6	
4	
5	
10	
3	
4	
0	
2	
3	
2	
2	
4	
5	
3	
1	
1	
5	
3	
6	
3	
5	
3	
3	
2	
4	
7	
5	
3	
2	
8	
4	
2	
7	
6	
4	
4	
1	
3	
4	
1	
3	
0	
3	
5	
1	
3	
4	
1	
3	
1	
1	
1	
1	
5	
8	
1	
5	
1	
4	
6	
6	
4	
5	
4	
3	
4	
2	
2	
4	
4	
4	
7	
2	
2	
0	
3	
5	
5	
2	
3	
4	
3	
2	
5	
1	
3	
6	
2	
3	
5	
5	
2	
2	
4	
2	
5	
6	
4	
4	
5	
1	
3	
3	
3	
4	
5	
3	
4	
6	
2	
5	
1	
1	
4	
1	
5	
5	
6	
3	
1	
1	
9	
1	
5	
4	
2	
4	
1	
0	
5	
3	
5	
4	
2	
3	
3	
5	
3	
6	
0	
5	
3	
3	
5	
4	
3	
3	
3	
0	
5	
1	
2	
3	
4	
4	
4	
4	
6	
3	
6	
5	
2	
3	
4	
3	
4	
7	
3	
2	
5	
4	
2	
6	
2	
8	
3	
0	
5	
2	
3	
5	
5	
5	
6	
1	
4	
3	
6	
3	
2	
1	
4	
1	
2	
2	
5	
1	
1	
0	
2	
4	
4	
4	
6	
3	
4	
1	
7	
2	
8	
5	
3	
2	
4	
4	
3	
3	
4	
2	
6	
7	
1	
9	
2	
4	
4	
4	
4	
2	
4	
8	
3	
3	
2	
4	
4	
4	
2	
1	
3	
4	
3	
5	
3	
5	
6	
3	
5	
2	
3	
9	
3	
2	
3	
5	
3	
3	
2	
4	
5	
6	
5	
4	
2	
7	
3	
7	
4	
7	
3	
5	
0	
0	
5	
3	
1	
4	
6	
1	
1	
5	
6	
4	
6	
4	
4	
3	
6	
2	
2	
3	
3	
3	
4	
8	
5	
5	
5	
6	
2	
1	
5	
5	
5	
3	
1	
7	
2	
4	
7	
2	
2	
8	
4	
4	
2	
3	
8	
6	
2	
4	
2	
4	
5	
4	
4	
3	
4	
3	
4	
1	
4	
2	
5	
6	
3	
2	
1	
4	
3	
2	
5	
2	
3	
6	
2	
5	
3	
2	
5	
5	
1	
8	
4	
3	
8	
2	
4	
4	
0	
4	
3	
5	
1	
1	
1	
3	
2	
5	
5	
4	
2	
6	
3	
4	
4	
3	
2	
5	
1	
3	
2	
3	
3	
3	
1	
1	
2	
1	
5	
3	
2	
2	
6	
4	
3	
5	
4	
5	
3	
5	
6	
3	
5	
2	
6	
4	
3	
4	
4	
3	
2	
6	
4	
3	
4	
5	
5	
4	
1	
4	
3	
3	
0	
1	
2	
2	
6	
1	
3	
3	
5	
2	
0	
7	
4	
1	
3	
5	
5	
3	
2	
2	
4	
4	
4	
0	
4	
2	
3	
5	
2	
2	
5	
6	
4	
1	
4	
1	
5	
3	
4	
6	
3	
4	
6	
3	
2	
4	
5	
4	
6	
1	
4	
8	
2	
4	
5	
5	
3	
1	
1	
5	
4	
3	
8	
5	
5	
2	
3	
1	
3	
5	
4	
2	
4	
2	
4	
2	
2	
4	
3	
4	
2	
2	
1	
4	
3	
4	
1	
2	
1	
5	
4	
5	
4	
4	
2	
3	
6	
3	
1	
3	
2	
2	
3	
4	
2	
7	
3	
5	
2	
0	
6	
1	
5	
3	
3	
5	
2	
2	
2	
4	
3	
4	
6	
3	
3	
4	
3	
0	
2	
1	
7	
2	
4	
5	
6	
7	
1	
1	
6	
5	
2	
3	
3	
1	
7	
2	
4	
6	
1	
6	
8	
5	
1	
0	
1	
3	
1	
5	
1	
3	
3	
4	
4	
3	
1	
1	
4	
5	
4	
2	
0	
4	
4	
1	
4	
1	
1	
4	
6	
5	
1	
5	
4	
1	
4	
1	
1	
6	
6	
3	
8	
3	
2	
2	
1	
2	
3	
3	
5	
3	
1	
3	
4	
1	
3	
4	
5	
6	
3	
1	
2	
4	
1	
0	
4	
4	
4	
6	
5	
3	
3	
7	
2	
6	
6	
4	
4	
3	
2	
1	
3	
5	
6	
5	
3	
3	
2	
4	
1	
3	
5	
4	
2	
2	
2	
2	
4	
2	
4	
5	
3	
3	
2	
1	
4	
2	
4	
3	
1	
3	
5	
4	
1	
1	
3	
5	
2	
2	
1	
2	
2	
0	
4	
4	
4	
5	
3	
3	
3	
0	
6	
2	
2	
5	
1	
4	
5	
2	
4	
2	
2	
6	
4	
2	
5	
5	
1	
4	
3	
5	
2	
5	
5	
3	
2	
3	
3	
6	
5	
5	
2	
8	
2	
6	
2	
1	
3	
4	
4	
3	
3	
4	
2	
3	
5	
5	
0	
2	
2	
8	
4	
1	
3	
4	
4	
1	
2	
2	
6	
3	
5	
6	
5	
0	
1	
3	
1	
4	
3	
0	
6	
3	
5	
1	
6	
3	
5	
4	
3	
4	
3	
2	
1	
3	
5	
2	
5	
3	
6	
1	
4	
4	
4	
4	
5	
2	
1	
3	
3	
1	
6	
3	
1	
1	
2	
4	
3	
3	
3	
2	
4	
2	
3	
2	
5	
3	
5	
2	
6	
7	
3	
4	
3	
6	
2	
3	
2	
6	
8	
2	
2	
2	
1	
5	
3	
2	
3	
4	
6	
2	
4	
3	
2	
3	
4	
4	
2	
5	
2	
5	
1	
1	
3	
1	
1	
5	
3	
3	
1	
0	
3	
7	
3	
9	
3	
2	
0	
2	
5	
2	
8	
5	
2	
3	
4	
3	
5	
3	
0	
3	
4	
1	
2	
6	
4	
4	
3	
4	
5	
1	
5	
5	
5	
2	
4	
5	
5	
1	
1	
3	
5	
4	
2	
5	
2	
2	
6	
4	
2	
2	
6	
2	
5	
3	
5	
5	
2	
2	
2	
5	
6	
2	
4	
3	
2	
3	
5	
3	
2	
2	
0	
4	
1	
5	
2	
4	
3	
1	
1	
5	
2	
2	
2	
4	
3	
2	
7	
6	
2	
2	
5	
6	
0	
4	
2	
4	
3	
1	
8	
3	
4	
3	
3	
5	
6	
1	
3	
1	
3	
2	
3	
4	
4	
7	
2	
1	
0	
2	
2	
5	
3	
1	
4	
3	
3	
4	
1	
3	
7	
4	
6	
3	
0	
2	
3	
3	
1	
4	
8	
4	
2	
5	
3	
2	
2	
4	
4	
3	
4	
7	
2	
4	
11	
1	
3	
2	
0	
1	
4	
3	
3	
4	
0	
1	
10	
4	
6	
1	
6	
0	
3	
2	
3	
5	
5	
4	
3	
6	
5	
3	
5	
3	
2	
3	
1	
2	
8	
2	
5	
1	
3	
2	
6	
6	
4	
3	
2	
0	
4	
3	
4	
7	
7	
4	
2	
2	
4	
1	
3	
2	
1	
3	
3	
1	
4	
4	
3	
3	
3	
5	
3	
5	
0	
3	
2	
2	
3	
2	
5	
4	
2	
4	
2	
2	
5	
5	
2	
2	
7	
1	
2	
4	
4	
3	
2	
3	
3	
1	
2	
1	
4	
3	
3	
1	
0	
3	
1	
4	
4	
2	
1	
5	
4	
3	
4	
3	
2	
5	
2	
5	
3	
2	
5	
5	
4	
5	
2	
1	
7	
3	
2	
4	
3	
3	
4	
1	
3	
1	
4	
5	
7	
4	
3	
3	
2	
0	
4	
2	
3	
2	
3	
5	
1	
3	
6	
3	
3	
6	
3	
2	
4	
5	
2	
5	
2	
3	
2	
5	
4	
4	
2	
3	
1	
1	
3	
3	
6	
2	
2	
4	
3	
3	
2	
1	
5	
5	
3	
6	
5	
7	
2	
3	
2	
2	
7	
0	
3	
4	
4	
6	
2	
3	
4	
3	
7	
4	
0	
2	
5	
1	
4	
3	
1	
3	
5	
2	
4	
1	
2	
4	
4	
3	
1	
1	
4	
5	
5	
6	
1	
3	
1	
4	
4	
2	
1	
3	
3	
5	
2	
0	
4	
3	
3	
6	
2	
4	
1	
5	
3	
3	
4	
7	
2	
4	
3	
5	
2	
1	
6	
3	
2	
7	
5	
0	
1	
3	
5	
1	
2	
3	
5	
4	
4	
3	
4	
2	
2	
3	
2	
0	
2	
4	
1	
2	
2	
2	
6	
2	
6	
7	
0	
3	
0	
3	
2	
4	
1	
3	
4	
4	
4	
2	
2	
5	
3	
1	
1	
2	
1	
3	
6	
3	
3	
5	
7	
2	
1	
2	
5	
5	
2	
4	
2	
2	
2	
4	
0	
0	
3	
3	
3	
4	
4	
4	
1	
7	
1	
1	
6	
3	
3	
2	
5	
4	
2	
2	
4	
3	
1	
1	
3	
7	
1	
5	
6	
0	
3	
1	
7	
3	
2	
4	
2	
2	
2	
4	
2	
2	
6	
3	
4	
8	
3	
3	
2	
4	
2	
4	
1	
3	
1	
5	
4	
5	
2	
3	
2	
3	
2	
4	
5	
2	
5	
1	
2	
3	
4	
3	
2	
1	
3	
3	
5	
2	
7	
1	
2	
5	
2	
3	
2	
0	
2	
2	
6	
3	
2	
4	
3	
4	
3	
3	
5	
0	
6	
4	
5	
6	
4	
0	
4	
6	
3	
2	
4	
3	
5	
2	
4	
1	
4	
1	
3	
4	
2	
1	
0	
0	
1	
5	
5	
3	
0	
6	
4	
4	
2	
2	
3	
2	
2	
4	
5	
4	
1	
2	
6	
3	
5	
3	
3	
5	
5	
6	
0	
2	
1	
3	
4	
3	
2	
5	
5	
0	
3	
7	
5	
3	
3	
2	
4	
6	
2	
4	
3	
8	
3	
3	
1	
0	
1	
2	
0	
5	
1	
5	
9	
3	
5	
5	
10	
3	
6	
1	
5	
3	
4	
2	
2	
7	
4	
3	
4	
4	
3	
5	
4	
3	
3	
3	
5	
2	
5	
1	
0	
5	
3	
2	
5	
6	
4	
1	
0	
1	
2	
5	
1	
4	
5	
2	
3	
5	
3	
3	
4	
4	
5	
2	
2	
3	
2	
4	
10	
6	
6	
6	
3	
2	
6	
2	
4	
2	
1	
1	
2	
1	
7	
2	
2	
3	
3	
7	
4	
6	
5	
2	
2	
5	
4	
2	
2	
2	
3	
0	
4	
0	
6	
7	
2	
4	
1	
2	
3	
3	
1	
0	
1	
2	
3	
1	
6	
4	
1	
7	
4	
3	
2	
3	
1	
5	
2	
3	
3	
3	
3	
3	
2	
2	
5	
2	
0	
5	
3	
1	
2	
2	
4	
7	
3	
4	
3	
1	
4	
7	
5	
4	
3	
2	
3	
2	
0	
5	
4	
5	
2	
1	
1	
1	
3	
3	
1	
1	
2	
1	
2	
3	
3	
4	
6	
6	
6	
3	
4	
4	
3	
2	
2	
4	
5	
5	
3	
7	
2	
2	
1	
2	
2	
3	
3	
1	
3	
5	
3	
5	
3	
4	
4	
2	
3	
2	
3	
5	
5	
2	
2	
3	
2	
6	
2	
4	
2	
2	
2	
3	
7	
4	
2	
2	
4	
2	
8	
2	
1	
2	
1	
1	
1	
1	
3	
7	
3	
4	
1	
2	
3	
3	
1	
4	
3	
3	
1	
4	
3	
1	
5	
3	
6	
1	
2	
2	
2	
3	
4	
4	
4	
3	
4	
7	
0	
5	
3	
2	
4	
2	
6	
3	
3	
2	
2	
2	
2	
8	
2	
3	
6	
7	
3	
1	
3	
8	
3	
2	
3	
2	
5	
4	
3	
5	
4	
2	
2	
2	
5	
2	
3	
0	
1	
6	
4	
1	
1	
1	
3	
6	
4	
3	
2	
1	
8	
2	
2	
0	
6	
1	
3	
1	
5	
2	
1	
6	
7	
4	
5	
4	
6	
4	
4	
2	
4	
5	
2	
3	
3	
2	
1	
4	
4	
3	
5	
5	
1	
3	
3	
4	
3	
2	
4	
2	
2	
1	
4	
2	
3	
2	
6	
1	
3	
8	
4	
0	
1	
1	
3	
8	
6	
2	
4	
4	
8	
4	
2	
4	
4	
3	
2	
3	
0	
2	
5	
3	
1	
2	
7	
4	
2	
8	
2	
2	
4	
3	
0	
8	
3	
6	
4	
5	
4	
3	
0	
2	
3	
3	
0	
4	
4	
3	
4	
1	
2	
6	
4	
5	
3	
6	
7	
1	
4	
1	
6	
1	
2	
1	
2	
4	
5	
3	
5	
0	
2	
1	
4	
1	
1	
4	
4	
4	
5	
5	
3	
2	
1	
3	
1	
3	
5	
2	
4	
5	
4	
4	
3	
3	
3	
3	
4	
2	
4	
3	
0	
7	
3	
5	
3	
1	
1	
3	
1	
3	
2	
2	
2	
5	
1	
2	
3	
3	
2	
2	
1	
2	
0	
4	
4	
5	
3	
3	
4	
1	
2	
1	
2	
4	
3	
2	
4	
4	
2	
4	
5	
3	
1	
2	
2	
8	
3	
1	
4	
5	
1	
2	
5	
5	
1	
3	
3	
2	
0	
3	
0	
5	
4	
2	
3	
3	
3	
2	
5	
1	
3	
2	
4	
0	
1	
2	
4	
7	
3	
4	
1	
7	
5	
0	
1	
5	
3	
1	
3	
3	
3	
6	
2	
2	
0	
3	
4	
2	
1	
5	
5	
5	
4	
2	
2	
1	
3	
2	
1	
2	
6	
4	
3	
1	
8	
2	
2	
6	
4	
3	
4	
2	
1	
4	
3	
4	
2	
0	
6	
3	
5	
3	
2	
2	
2	
5	
3	
1	
3	
3	
4	
4	
2	
2	
2	
3	
2	
3	
3	
1	
1	
2	
3	
5	
2	
2	
2	
4	
4	
4	
2	
5	
2	
4	
5	
5	
6	
3	
3	
3	
2	
2	
3	
1	
3	
6	
3	
4	
4	
5	
7	
3	
8	
3	
2	
3	
3	
5	
3	
6	
0	
3	
3	
5	
4	
4	
7	
4	
5	
1	
4	
0	
4	
2	
6	
2	
3	
3	
3	
1	
1	
6	
3	
1	
2	
1	
1	
2	
4	
3	
3	
1	
2	
4	
3	
3	
1	
3	
2	
10	
4	
2	
0	
1	
2	
1	
1	
2	
2	
3	
4	
3	
2	
2	
4	
6	
0	
1	
2	
2	
4	
6	
3	
3	
1	
1	
0	
6	
2	
3	
2	
3	
4	
4	
4	
1	
2	
4	
5	
3	
4	
4	
3	
4	
2	
1	
3	
1	
2	
5	
4	
2	
1	
6	
4	
5	
5	
2	
6	
3	
5	
2	
2	
5	
2	
1	
1	
4	
1	
0	
3	
2	
6	
7	
2	
1	
2	
5	
2	
1	
6	
2	
2	
6	
5	
2	
4	
3	
5	
4	
1	
2	
3	
2	
2	
7	
4	
2	
2	
7	
7	
6	
4	
2	
4	
2	
1	
7	
1	
3	
3	
2	
6	
0	
3	
5	
3	
4	
1	
3	
4	
2	
4	
4	
4	
0	
4	
4	
2	
5	
4	
3	
3	
2	
2	
4	
1	
1	
2	
3	
6	
4	
4	
2	
5	
0	
1	
5	
2	
5	
4	
1	
3	
1	
2	
1	
2	
3	
2	
3	
4	
2	
4	
3	
2	
0	
2	
4	
1	
5	
4	
5	
1	
1	
6	
1	
3	
3	
4	
3	
6	
3	
3	
1	
5	
5	
3	
6	
6	
3	
3	
6	
7	
6	
4	
2	
0	
4	
3	
4	
1	
3	
3	
4	
3	
2	
5	
4	
2	
2	
0	
2	
2	
4	
2	
5	
4	
4	
3	
1	
2	
2	
2	
4	
2	
4	
2	
2	
4	
8	
2	
4	
3	
2	
7	
5	
5	
6	
2	
2	
3	
3	
0	
3	
5	
5	
4	
0	
6	
2	
0	
3	
3	
3	
0	
5	
1	
3	
6	
4	
3	
4	
1	
4	
1	
3	
4	
3	
3	
4	
1	
1	
5	
5	
5	
1	
2	
0	
3	
0	
2	
2	
5	
7	
3	
3	
3	
3	
2	
2	
3	
3	
4	
0	
3	
1	
0	
3	
1	
2	
4	
3	
6	
2	
4	
1	
1	
0	
1	
1	
4	
3	
4	
3	
0	
6	
4	
2	
3	
2	
4	
1	
8	
4	
3	
7	
1	
1	
1	
3	
2	
5	
3	
5	
2	
1	
0	
4	
1	
4	
4	
2	
4	
6	
1	
5	
1	
2	
2	
3	
1	
5	
0	
2	
6	
3	
5	
3	
2	
3	
4	
3	
4	
1	
3	
4	
2	
2	
1	
1	
7	
5	
9	
2	
8	
0	
5	
3	
2	
3	
4	
2	
2	
1	
3	
6	
0	
1	
3	
3	
5	
1	
6	
4	
4	
2	
7	
2	
5	
5	
1	
4	
1	
5	
5	
2	
7	
1	
3	
5	
4	
5	
6	
3	
0	
4	
3	
5	
4	
2	
2	
5	
1	
2	
4	
1	
5	
4	
2	
6	
1	
4	
2	
4	
2	
2	
3	
3	
1	
4	
8	
2	
8	
3	
4	
2	
1	
1	
3	
1	
1	
3	
4	
1	
3	
4	
6	
7	
4	
5	
6	
3	
2	
5	
1	
3	
2	
2	
1	
0	
3	
7	
3	
4	
5	
2	
1	
2	
4	
1	
3	
3	
2	
2	
7	
4	
7	
3	
1	
2	
3	
2	
3	
3	
4	
6	
1	
6	
3	
3	
4	
1	
4	
5	
2	
0	
3	
4	
0	
0	
4	
1	
3	
2	
0	
4	
4	
4	
2	
0	
3	
2	
2	
5	
1	
6	
3	
4	
0	
1	
7	
2	
1	
0	
4	
4	
3	
8	
4	
2	
3	
0	
0	
0	
0	
0	
0	
0	
0	
0	
0	
0	
0	
0	
0	
0	
0	
0	
0	
0	
0	
