#PicoHarp 300  Histogram Data			03/13/2023 03:07:16 PM
#channels per curve
3907
#display curve no.
0	
#memory block no.
0	
#ns/channel
0.1280	
#counts
3	
2	
2	
5	
1	
6	
4	
3	
3	
1	
4	
6	
3	
4	
1	
3	
4	
1	
4	
3	
2	
0	
3	
7	
5	
4	
0	
1	
2	
4	
3	
5	
8	
0	
2	
5	
2	
2	
3	
3	
5	
5	
1	
4	
3	
2	
2	
2	
0	
3	
2	
0	
1	
2	
3	
1	
4	
1	
5	
1	
3	
4	
6	
5	
1	
4	
2	
3	
5	
4	
1	
2	
5	
5	
5	
2	
2	
1	
5	
5	
5	
4	
4	
2	
6	
3	
2	
1	
4	
2	
5	
5	
3	
0	
4	
4	
7	
7	
3	
3	
5	
7	
3	
2	
2	
4	
3	
0	
6	
2	
5	
1	
1	
4	
8	
5	
4	
5	
2	
5	
3	
7	
2	
3	
3	
4	
4	
5	
3	
3	
3	
2	
2	
5	
4	
4	
1	
3	
8	
5	
4	
4	
4	
1	
5	
2	
2	
4	
6	
2	
1	
4	
3	
2	
3	
2	
2	
1	
3	
4	
1	
4	
5	
3	
2	
2	
2	
3	
5	
4	
6	
7	
1	
1	
1	
5	
7	
4	
2	
3	
3	
3	
5	
4	
4	
5	
4	
2	
6	
1	
3	
1	
4	
5	
2	
5	
3	
9	
3	
4	
4	
2	
2	
6	
5	
4	
2	
2	
2	
4	
5	
6	
5	
10	
4	
5	
2	
3	
2	
7	
0	
4	
3	
3	
3	
3	
3	
4	
5	
0	
3	
5	
2	
3	
6	
6	
4	
3	
2	
2	
3	
4	
9	
23	
137	
358	
578	
701	
800	
941	
977	
965	
1000	
932	
932	
893	
872	
876	
900	
921	
823	
817	
807	
840	
854	
812	
790	
744	
783	
753	
729	
711	
664	
672	
714	
702	
697	
657	
639	
665	
644	
626	
650	
676	
646	
629	
603	
551	
566	
596	
595	
583	
576	
551	
574	
553	
531	
530	
502	
506	
526	
533	
513	
499	
489	
513	
482	
478	
458	
476	
441	
413	
437	
428	
462	
462	
413	
399	
390	
422	
413	
424	
419	
394	
398	
405	
378	
367	
376	
368	
408	
367	
384	
372	
384	
331	
332	
353	
333	
333	
319	
329	
343	
324	
300	
325	
348	
328	
304	
323	
312	
313	
315	
303	
303	
284	
277	
290	
303	
289	
281	
311	
277	
283	
258	
290	
295	
272	
267	
255	
241	
287	
264	
215	
252	
246	
237	
256	
245	
223	
258	
253	
246	
257	
246	
238	
236	
249	
226	
222	
214	
224	
234	
210	
209	
217	
186	
224	
206	
197	
225	
212	
196	
215	
219	
204	
224	
195	
186	
167	
198	
180	
185	
220	
176	
187	
168	
169	
170	
188	
159	
179	
182	
183	
195	
172	
147	
149	
187	
172	
169	
167	
167	
133	
182	
157	
153	
146	
158	
176	
173	
155	
169	
152	
139	
166	
155	
171	
138	
147	
150	
148	
128	
126	
139	
133	
141	
141	
126	
152	
114	
121	
122	
136	
139	
116	
150	
118	
120	
145	
137	
137	
140	
130	
119	
141	
126	
113	
125	
117	
115	
122	
130	
127	
118	
116	
120	
144	
128	
90	
124	
127	
133	
111	
112	
134	
116	
102	
128	
113	
109	
99	
99	
111	
103	
92	
96	
110	
110	
97	
97	
93	
88	
100	
109	
73	
105	
124	
94	
102	
93	
94	
110	
89	
91	
106	
106	
91	
113	
83	
94	
87	
89	
70	
86	
92	
88	
99	
84	
88	
86	
90	
102	
76	
79	
95	
100	
77	
82	
80	
63	
81	
71	
62	
83	
72	
98	
84	
90	
74	
67	
73	
86	
84	
73	
66	
82	
66	
79	
64	
72	
64	
68	
68	
74	
60	
71	
68	
73	
70	
50	
75	
64	
56	
83	
60	
74	
71	
78	
72	
79	
62	
58	
62	
56	
61	
66	
52	
49	
70	
81	
58	
54	
66	
60	
71	
50	
60	
69	
57	
72	
62	
62	
50	
56	
67	
66	
60	
61	
54	
44	
65	
66	
48	
51	
62	
48	
69	
53	
61	
54	
49	
63	
64	
48	
62	
55	
46	
56	
47	
43	
52	
69	
54	
54	
40	
54	
50	
54	
46	
46	
48	
44	
44	
52	
54	
37	
64	
44	
42	
56	
53	
40	
57	
44	
44	
27	
54	
42	
40	
44	
48	
53	
43	
47	
38	
55	
48	
45	
41	
49	
43	
48	
36	
38	
36	
32	
39	
43	
36	
36	
43	
39	
37	
44	
34	
35	
34	
44	
39	
46	
35	
47	
39	
51	
40	
38	
38	
44	
32	
36	
27	
37	
34	
42	
41	
39	
34	
30	
39	
35	
37	
29	
39	
32	
36	
32	
30	
40	
38	
39	
44	
41	
33	
37	
36	
25	
32	
26	
32	
44	
31	
37	
49	
37	
30	
32	
26	
36	
32	
39	
34	
20	
34	
31	
28	
30	
29	
39	
30	
33	
31	
34	
36	
32	
49	
31	
31	
45	
36	
20	
27	
35	
41	
23	
31	
30	
27	
26	
21	
22	
28	
35	
28	
23	
29	
35	
28	
29	
24	
40	
28	
30	
27	
22	
23	
34	
24	
30	
28	
25	
25	
26	
30	
26	
23	
30	
31	
32	
15	
31	
28	
33	
24	
20	
26	
27	
27	
22	
34	
28	
32	
31	
17	
23	
17	
21	
29	
21	
26	
23	
27	
20	
23	
28	
26	
27	
20	
21	
21	
26	
21	
23	
24	
24	
27	
18	
19	
21	
24	
16	
24	
36	
13	
17	
25	
21	
27	
24	
22	
19	
22	
32	
18	
21	
17	
13	
16	
29	
22	
29	
18	
19	
15	
19	
21	
22	
19	
24	
20	
22	
18	
23	
18	
23	
25	
25	
17	
22	
23	
25	
13	
20	
15	
18	
16	
21	
20	
18	
19	
23	
19	
24	
17	
26	
16	
22	
19	
17	
24	
22	
19	
17	
20	
19	
21	
17	
14	
21	
10	
21	
20	
17	
16	
14	
15	
17	
18	
15	
15	
22	
10	
10	
12	
26	
18	
20	
14	
25	
19	
22	
18	
10	
19	
12	
16	
11	
21	
14	
15	
15	
18	
12	
14	
19	
18	
11	
9	
20	
21	
13	
22	
15	
23	
24	
19	
22	
22	
14	
13	
9	
16	
16	
13	
13	
18	
17	
14	
18	
15	
23	
13	
20	
12	
12	
9	
14	
12	
12	
14	
14	
24	
15	
16	
17	
13	
16	
11	
20	
15	
7	
18	
15	
17	
16	
13	
13	
7	
15	
16	
15	
18	
21	
11	
12	
19	
17	
9	
14	
9	
19	
10	
19	
21	
11	
19	
18	
11	
18	
10	
7	
16	
16	
16	
14	
15	
16	
17	
18	
16	
15	
15	
15	
11	
12	
24	
12	
13	
9	
15	
9	
17	
12	
10	
15	
8	
17	
19	
15	
11	
12	
11	
17	
17	
17	
17	
16	
17	
11	
11	
11	
9	
16	
12	
10	
11	
11	
14	
8	
9	
19	
19	
15	
18	
9	
12	
16	
11	
12	
20	
11	
14	
15	
9	
15	
11	
15	
12	
12	
15	
11	
13	
10	
9	
12	
8	
15	
16	
10	
8	
12	
10	
5	
7	
7	
12	
15	
16	
17	
6	
15	
8	
11	
11	
15	
10	
8	
7	
13	
12	
12	
16	
10	
12	
5	
13	
13	
14	
12	
9	
14	
14	
15	
14	
13	
10	
7	
14	
13	
8	
14	
16	
10	
9	
12	
15	
9	
11	
13	
15	
12	
4	
16	
10	
9	
14	
9	
12	
6	
10	
11	
4	
6	
9	
11	
17	
11	
16	
13	
14	
13	
9	
14	
12	
9	
10	
15	
15	
10	
9	
10	
9	
10	
16	
14	
11	
6	
7	
15	
11	
12	
8	
11	
6	
7	
13	
10	
17	
10	
16	
7	
12	
8	
10	
11	
9	
11	
7	
7	
12	
14	
5	
11	
14	
11	
13	
4	
14	
10	
13	
12	
7	
16	
12	
5	
6	
6	
9	
6	
16	
10	
10	
14	
7	
10	
10	
15	
9	
13	
9	
15	
12	
9	
3	
10	
15	
6	
10	
6	
8	
8	
7	
12	
8	
12	
13	
8	
8	
8	
7	
9	
4	
12	
8	
5	
8	
13	
17	
13	
10	
7	
9	
8	
7	
12	
4	
11	
10	
9	
9	
12	
6	
10	
8	
7	
9	
15	
8	
7	
15	
11	
9	
12	
15	
8	
10	
7	
7	
9	
12	
5	
9	
5	
7	
5	
13	
10	
10	
8	
10	
7	
10	
4	
12	
7	
11	
10	
17	
8	
9	
7	
11	
19	
6	
5	
5	
8	
5	
7	
12	
13	
12	
7	
6	
2	
8	
11	
5	
11	
8	
7	
9	
15	
8	
12	
3	
9	
6	
8	
12	
8	
10	
9	
10	
10	
6	
10	
7	
7	
7	
4	
8	
8	
10	
15	
12	
15	
9	
8	
7	
6	
7	
6	
5	
8	
4	
8	
4	
9	
8	
9	
10	
6	
4	
7	
7	
6	
10	
12	
7	
12	
6	
4	
9	
3	
3	
9	
6	
8	
8	
9	
6	
14	
10	
8	
6	
5	
7	
6	
11	
3	
6	
3	
11	
3	
5	
7	
7	
8	
3	
13	
10	
7	
8	
11	
11	
5	
6	
7	
5	
9	
6	
4	
6	
11	
5	
6	
12	
10	
10	
6	
7	
11	
8	
13	
15	
6	
8	
12	
7	
10	
6	
10	
6	
7	
5	
4	
9	
4	
5	
11	
10	
4	
7	
4	
8	
3	
11	
6	
8	
9	
11	
4	
15	
9	
11	
6	
5	
2	
7	
7	
8	
10	
7	
8	
9	
9	
8	
5	
9	
13	
11	
8	
6	
6	
6	
4	
7	
9	
8	
5	
7	
9	
3	
2	
10	
8	
9	
8	
9	
10	
3	
8	
14	
6	
7	
7	
5	
10	
7	
11	
6	
2	
7	
8	
7	
5	
7	
3	
4	
6	
8	
9	
6	
4	
6	
4	
8	
10	
5	
7	
19	
6	
7	
5	
5	
6	
10	
7	
5	
8	
11	
9	
6	
4	
5	
9	
7	
10	
7	
6	
6	
4	
9	
5	
7	
7	
8	
7	
5	
7	
3	
7	
3	
9	
8	
8	
7	
9	
2	
7	
6	
13	
5	
10	
8	
9	
9	
4	
7	
8	
6	
6	
5	
6	
2	
7	
10	
9	
9	
5	
4	
6	
4	
4	
2	
3	
9	
4	
6	
3	
4	
5	
11	
9	
8	
7	
4	
7	
4	
8	
4	
9	
6	
6	
7	
3	
5	
5	
5	
5	
3	
9	
4	
9	
9	
7	
5	
8	
7	
3	
9	
2	
11	
3	
7	
5	
8	
3	
6	
4	
5	
6	
7	
6	
8	
5	
6	
4	
5	
2	
5	
8	
3	
6	
6	
6	
7	
3	
2	
6	
10	
3	
7	
4	
9	
4	
4	
3	
6	
14	
10	
7	
9	
7	
6	
7	
8	
1	
5	
7	
9	
6	
7	
8	
13	
8	
1	
5	
7	
7	
9	
3	
8	
3	
3	
8	
2	
7	
8	
7	
4	
4	
10	
4	
10	
8	
7	
4	
9	
3	
5	
7	
9	
10	
9	
5	
8	
3	
5	
4	
2	
7	
2	
10	
12	
6	
11	
5	
1	
7	
6	
11	
4	
8	
3	
5	
9	
4	
4	
6	
6	
5	
6	
4	
8	
3	
7	
4	
5	
6	
11	
8	
4	
4	
6	
6	
4	
5	
3	
5	
11	
3	
3	
1	
9	
6	
5	
6	
7	
7	
8	
5	
5	
5	
7	
9	
14	
10	
8	
5	
4	
7	
8	
9	
8	
7	
2	
9	
3	
7	
9	
4	
8	
8	
6	
6	
6	
6	
3	
5	
2	
4	
3	
5	
7	
3	
7	
8	
4	
6	
3	
3	
8	
6	
3	
4	
6	
3	
4	
3	
10	
5	
0	
5	
6	
3	
5	
4	
8	
4	
8	
9	
8	
9	
4	
5	
4	
3	
7	
3	
5	
7	
6	
9	
6	
3	
5	
5	
4	
6	
4	
8	
7	
2	
5	
7	
5	
2	
3	
9	
7	
6	
5	
7	
5	
6	
4	
2	
4	
8	
3	
5	
3	
5	
6	
3	
6	
7	
3	
1	
8	
8	
4	
6	
6	
1	
5	
2	
5	
3	
4	
3	
6	
5	
8	
8	
9	
7	
2	
6	
5	
5	
6	
7	
6	
5	
7	
8	
3	
10	
6	
5	
8	
8	
2	
4	
1	
3	
7	
5	
6	
4	
9	
4	
6	
10	
8	
2	
1	
4	
6	
3	
4	
4	
7	
2	
8	
2	
2	
6	
5	
3	
5	
4	
3	
4	
7	
5	
2	
3	
4	
3	
5	
3	
9	
3	
1	
7	
10	
3	
3	
6	
4	
7	
4	
4	
8	
4	
7	
1	
6	
8	
11	
7	
4	
4	
3	
5	
5	
2	
8	
2	
6	
6	
3	
5	
3	
6	
5	
2	
7	
3	
3	
7	
3	
4	
3	
2	
9	
3	
4	
5	
0	
1	
1	
1	
6	
7	
5	
4	
2	
4	
3	
5	
6	
4	
4	
5	
2	
6	
6	
7	
6	
4	
8	
8	
7	
4	
6	
3	
6	
6	
4	
5	
6	
8	
4	
5	
5	
6	
6	
5	
3	
4	
5	
4	
6	
4	
9	
3	
8	
3	
2	
4	
6	
1	
5	
5	
4	
7	
2	
4	
3	
4	
3	
2	
2	
5	
5	
5	
3	
3	
9	
4	
7	
6	
11	
5	
4	
7	
3	
4	
4	
5	
2	
4	
10	
2	
5	
2	
10	
9	
10	
8	
2	
4	
8	
3	
4	
6	
6	
5	
10	
8	
5	
2	
4	
5	
2	
4	
5	
8	
3	
2	
4	
3	
3	
8	
2	
3	
4	
2	
7	
1	
5	
5	
8	
5	
6	
5	
3	
4	
6	
4	
0	
8	
6	
2	
0	
2	
9	
8	
7	
5	
7	
7	
8	
6	
7	
4	
7	
5	
3	
5	
7	
6	
9	
7	
4	
3	
10	
8	
3	
3	
7	
9	
6	
9	
3	
3	
7	
1	
6	
8	
11	
5	
3	
5	
6	
6	
3	
3	
3	
5	
2	
5	
3	
4	
4	
7	
3	
5	
3	
6	
5	
3	
5	
2	
1	
6	
8	
5	
5	
1	
9	
6	
5	
2	
4	
9	
2	
6	
3	
9	
5	
5	
5	
5	
2	
3	
9	
3	
3	
3	
2	
5	
3	
6	
5	
2	
6	
4	
5	
5	
4	
5	
3	
2	
6	
3	
7	
3	
5	
5	
6	
6	
3	
3	
5	
1	
2	
7	
4	
5	
3	
7	
4	
0	
3	
5	
1	
2	
5	
3	
8	
4	
3	
2	
6	
3	
5	
6	
3	
8	
6	
7	
6	
1	
3	
7	
2	
3	
6	
6	
5	
5	
5	
6	
6	
5	
8	
4	
4	
5	
6	
2	
4	
8	
1	
4	
2	
6	
5	
5	
3	
2	
6	
10	
7	
4	
11	
4	
7	
2	
5	
7	
5	
6	
4	
2	
5	
4	
5	
4	
5	
4	
5	
5	
6	
3	
6	
4	
3	
4	
8	
8	
6	
5	
5	
3	
2	
5	
4	
2	
7	
6	
3	
5	
6	
8	
2	
5	
8	
3	
4	
4	
0	
1	
1	
3	
4	
4	
9	
2	
4	
4	
5	
5	
3	
5	
7	
4	
5	
3	
1	
2	
3	
2	
4	
12	
3	
3	
4	
7	
3	
3	
5	
3	
4	
5	
5	
2	
6	
4	
3	
4	
6	
3	
3	
1	
4	
4	
1	
2	
3	
3	
5	
3	
7	
2	
7	
5	
5	
1	
5	
7	
5	
2	
4	
5	
3	
6	
1	
0	
8	
5	
7	
1	
2	
2	
3	
6	
6	
4	
6	
3	
5	
2	
2	
7	
5	
2	
6	
9	
3	
4	
6	
7	
2	
12	
3	
4	
4	
4	
9	
7	
5	
4	
2	
3	
3	
4	
6	
5	
7	
5	
6	
6	
10	
2	
3	
8	
3	
0	
6	
2	
2	
5	
4	
2	
2	
7	
2	
2	
5	
5	
4	
2	
0	
5	
6	
6	
6	
3	
3	
3	
5	
7	
2	
8	
4	
4	
3	
5	
4	
6	
5	
9	
3	
2	
8	
4	
4	
4	
1	
6	
1	
4	
2	
5	
2	
1	
2	
5	
5	
7	
4	
3	
2	
4	
4	
7	
4	
6	
3	
4	
4	
4	
3	
5	
2	
4	
4	
2	
2	
3	
1	
3	
7	
3	
5	
5	
7	
8	
3	
6	
3	
1	
8	
5	
1	
7	
4	
1	
5	
8	
5	
4	
6	
4	
3	
7	
3	
5	
1	
4	
3	
5	
2	
5	
2	
6	
6	
2	
6	
3	
6	
5	
4	
3	
2	
6	
3	
7	
2	
5	
2	
3	
3	
4	
5	
6	
6	
0	
1	
6	
4	
2	
4	
7	
3	
6	
4	
1	
5	
1	
3	
6	
3	
4	
2	
7	
5	
2	
4	
3	
1	
3	
1	
5	
5	
4	
3	
5	
4	
5	
5	
1	
2	
3	
3	
5	
5	
6	
5	
4	
5	
9	
4	
0	
1	
6	
2	
4	
4	
3	
4	
5	
6	
4	
3	
6	
4	
6	
1	
3	
3	
6	
5	
3	
5	
0	
6	
4	
4	
3	
4	
2	
4	
2	
5	
3	
6	
5	
6	
3	
3	
4	
4	
2	
3	
4	
6	
1	
7	
3	
2	
3	
2	
3	
4	
1	
6	
4	
6	
9	
4	
3	
1	
6	
6	
4	
0	
5	
1	
9	
4	
7	
1	
6	
8	
2	
2	
4	
7	
4	
2	
2	
2	
5	
3	
2	
5	
3	
3	
6	
4	
2	
8	
1	
0	
6	
6	
7	
2	
1	
2	
5	
4	
3	
0	
7	
6	
5	
4	
5	
3	
8	
8	
3	
5	
9	
7	
2	
5	
3	
3	
10	
2	
4	
3	
2	
4	
1	
9	
1	
4	
3	
5	
2	
5	
3	
2	
6	
4	
0	
2	
3	
5	
4	
4	
3	
1	
3	
6	
5	
4	
4	
4	
5	
7	
1	
4	
4	
5	
5	
3	
2	
7	
3	
4	
4	
7	
4	
3	
3	
6	
5	
9	
3	
2	
4	
3	
6	
5	
4	
5	
2	
8	
3	
1	
6	
5	
3	
9	
3	
3	
5	
5	
3	
1	
6	
3	
3	
2	
1	
3	
7	
2	
1	
4	
8	
2	
4	
1	
4	
5	
6	
4	
5	
5	
3	
2	
6	
5	
6	
3	
5	
1	
4	
6	
4	
5	
5	
3	
2	
4	
6	
3	
4	
2	
3	
0	
4	
2	
3	
7	
5	
3	
6	
0	
2	
4	
3	
4	
2	
4	
1	
2	
4	
3	
4	
2	
3	
6	
9	
4	
1	
1	
6	
2	
3	
2	
1	
4	
6	
6	
3	
5	
3	
6	
5	
8	
7	
2	
5	
2	
9	
6	
5	
4	
3	
7	
3	
6	
2	
9	
1	
1	
5	
3	
4	
1	
4	
3	
6	
5	
1	
7	
1	
3	
4	
5	
3	
7	
7	
5	
4	
3	
3	
5	
5	
2	
3	
3	
4	
4	
8	
1	
3	
4	
0	
6	
3	
2	
5	
5	
4	
2	
4	
5	
3	
3	
1	
0	
3	
5	
5	
3	
6	
4	
3	
3	
7	
5	
3	
1	
3	
4	
3	
1	
3	
4	
0	
3	
4	
2	
3	
3	
5	
0	
3	
7	
4	
3	
3	
6	
0	
3	
5	
2	
11	
4	
1	
5	
3	
3	
2	
2	
3	
2	
1	
6	
1	
4	
1	
3	
6	
3	
4	
4	
2	
4	
3	
6	
7	
4	
4	
3	
6	
8	
6	
4	
2	
3	
3	
3	
2	
4	
4	
3	
2	
7	
3	
6	
3	
3	
3	
4	
7	
3	
3	
4	
1	
6	
2	
5	
2	
1	
6	
2	
3	
4	
0	
2	
1	
4	
3	
6	
3	
1	
2	
4	
7	
3	
6	
7	
2	
4	
1	
8	
4	
7	
7	
2	
5	
1	
5	
3	
7	
3	
7	
2	
3	
2	
3	
2	
4	
2	
4	
0	
8	
4	
4	
4	
1	
2	
3	
2	
4	
9	
2	
4	
6	
4	
2	
3	
4	
7	
2	
8	
3	
7	
2	
3	
6	
2	
4	
2	
3	
5	
1	
4	
6	
4	
9	
4	
5	
4	
3	
6	
6	
5	
3	
2	
3	
5	
2	
3	
5	
7	
7	
5	
1	
3	
3	
4	
3	
6	
3	
2	
3	
1	
6	
3	
3	
2	
7	
5	
6	
4	
1	
2	
5	
2	
5	
5	
2	
5	
6	
4	
4	
4	
1	
6	
6	
3	
5	
0	
3	
2	
4	
4	
2	
3	
2	
3	
2	
3	
5	
2	
4	
1	
2	
2	
6	
1	
7	
3	
4	
5	
2	
5	
3	
4	
1	
4	
6	
3	
5	
4	
1	
3	
5	
4	
4	
2	
2	
6	
4	
6	
5	
6	
5	
4	
2	
6	
6	
4	
2	
5	
2	
6	
6	
1	
4	
4	
4	
1	
7	
3	
4	
4	
5	
1	
3	
3	
4	
6	
2	
3	
2	
5	
7	
1	
4	
3	
2	
6	
7	
6	
3	
4	
2	
8	
4	
3	
5	
6	
6	
9	
2	
6	
5	
2	
2	
3	
3	
3	
3	
7	
3	
4	
4	
5	
1	
7	
2	
6	
2	
4	
5	
5	
3	
3	
3	
4	
5	
6	
4	
1	
3	
6	
3	
4	
5	
3	
4	
5	
6	
5	
2	
3	
2	
4	
3	
1	
3	
3	
2	
5	
2	
4	
1	
6	
2	
4	
6	
6	
4	
1	
3	
3	
1	
3	
4	
3	
1	
2	
4	
6	
1	
7	
3	
4	
6	
4	
2	
2	
3	
3	
2	
2	
0	
4	
5	
7	
2	
7	
3	
6	
2	
0	
2	
4	
1	
6	
1	
3	
7	
2	
2	
2	
4	
4	
8	
4	
3	
0	
2	
1	
5	
1	
8	
7	
1	
6	
2	
2	
4	
5	
3	
7	
6	
3	
7	
10	
2	
7	
3	
8	
3	
1	
2	
1	
5	
3	
2	
6	
1	
4	
4	
3	
1	
1	
4	
4	
5	
8	
6	
3	
6	
10	
2	
9	
1	
1	
4	
2	
5	
4	
2	
4	
3	
8	
3	
3	
2	
9	
3	
5	
6	
3	
6	
3	
8	
5	
8	
2	
1	
4	
3	
2	
4	
7	
6	
4	
5	
1	
4	
2	
1	
9	
5	
1	
5	
5	
7	
5	
2	
3	
5	
8	
4	
4	
4	
5	
4	
5	
9	
2	
3	
4	
2	
4	
3	
6	
6	
1	
9	
7	
2	
5	
4	
1	
5	
3	
2	
3	
3	
7	
1	
3	
6	
1	
4	
4	
5	
5	
6	
0	
4	
5	
2	
1	
6	
1	
2	
7	
5	
2	
8	
7	
5	
4	
5	
6	
2	
0	
1	
1	
6	
3	
1	
3	
2	
0	
5	
5	
2	
8	
6	
5	
5	
7	
2	
1	
1	
1	
2	
9	
5	
3	
4	
2	
3	
2	
3	
4	
3	
5	
4	
1	
3	
3	
3	
3	
4	
3	
3	
4	
4	
3	
5	
5	
4	
1	
5	
6	
1	
2	
4	
6	
4	
5	
5	
2	
6	
1	
4	
1	
5	
4	
1	
5	
3	
2	
2	
3	
4	
2	
1	
4	
3	
2	
5	
2	
2	
4	
4	
6	
4	
3	
5	
5	
0	
0	
4	
3	
5	
4	
2	
5	
6	
2	
3	
7	
7	
4	
8	
5	
5	
2	
0	
5	
4	
5	
5	
4	
2	
2	
8	
9	
4	
5	
4	
5	
2	
0	
3	
6	
1	
1	
5	
8	
4	
4	
4	
3	
5	
4	
4	
4	
3	
2	
5	
1	
3	
1	
3	
2	
6	
3	
1	
5	
0	
3	
4	
3	
1	
5	
2	
5	
2	
6	
6	
3	
2	
4	
6	
4	
4	
6	
3	
1	
3	
4	
5	
3	
3	
5	
4	
2	
7	
3	
4	
3	
3	
3	
5	
1	
1	
4	
5	
5	
6	
2	
6	
10	
4	
5	
5	
6	
6	
3	
3	
2	
5	
5	
6	
4	
2	
2	
3	
4	
1	
4	
4	
6	
1	
6	
6	
3	
6	
2	
2	
5	
6	
5	
4	
5	
5	
1	
4	
2	
3	
1	
2	
4	
6	
1	
5	
1	
3	
4	
4	
1	
5	
5	
3	
5	
3	
5	
2	
7	
6	
3	
3	
2	
5	
3	
2	
1	
4	
3	
4	
4	
4	
2	
8	
5	
1	
5	
4	
3	
6	
5	
2	
4	
3	
4	
3	
1	
4	
3	
3	
4	
1	
0	
3	
3	
3	
3	
4	
5	
3	
3	
5	
0	
5	
3	
2	
2	
0	
0	
0	
0	
0	
0	
0	
0	
0	
0	
0	
0	
0	
0	
0	
0	
0	
0	
0	
0	
0	
0	
0	
0	
0	
0	
0	
0	
0	
0	
0	
0	
0	
