#PicoHarp 300  Histogram Data			03/13/2023 03:15:07 PM
#channels per curve
3907
#display curve no.
0	
#memory block no.
0	
#ns/channel
0.1280	
#counts
5	
3	
2	
6	
2	
3	
1	
4	
5	
6	
3	
2	
6	
7	
3	
6	
7	
2	
0	
4	
3	
4	
5	
1	
2	
6	
2	
3	
1	
2	
2	
4	
6	
2	
4	
3	
4	
3	
8	
3	
4	
2	
1	
6	
3	
5	
6	
3	
2	
6	
1	
4	
3	
1	
2	
8	
4	
3	
2	
2	
6	
5	
4	
9	
7	
8	
2	
1	
3	
5	
1	
4	
5	
1	
3	
2	
1	
3	
1	
3	
4	
3	
1	
0	
2	
2	
4	
3	
5	
4	
5	
4	
1	
4	
2	
4	
6	
2	
4	
2	
7	
8	
0	
0	
2	
4	
9	
3	
4	
1	
5	
3	
4	
3	
3	
4	
2	
3	
4	
5	
3	
3	
0	
3	
3	
3	
0	
4	
2	
3	
7	
8	
1	
4	
8	
0	
1	
4	
2	
5	
1	
2	
2	
6	
4	
5	
3	
3	
2	
4	
7	
0	
4	
5	
5	
2	
3	
6	
2	
1	
5	
4	
6	
3	
6	
3	
3	
6	
1	
4	
5	
3	
3	
4	
4	
2	
4	
4	
3	
2	
3	
6	
2	
10	
2	
5	
4	
3	
3	
1	
3	
6	
4	
6	
3	
6	
3	
6	
6	
1	
6	
4	
1	
0	
1	
4	
2	
5	
3	
3	
5	
7	
4	
7	
4	
5	
6	
5	
2	
2	
3	
0	
3	
4	
2	
5	
4	
8	
2	
7	
1	
2	
2	
2	
6	
7	
2	
6	
1	
4	
3	
3	
7	
28	
142	
443	
682	
795	
914	
1000	
999	
999	
920	
892	
883	
887	
853	
854	
849	
861	
839	
799	
831	
768	
815	
764	
729	
774	
765	
730	
772	
741	
695	
694	
687	
690	
629	
649	
669	
628	
672	
666	
604	
603	
610	
620	
638	
558	
596	
509	
570	
598	
536	
591	
525	
534	
519	
523	
550	
501	
503	
502	
479	
481	
463	
463	
512	
481	
432	
449	
434	
441	
441	
431	
452	
401	
434	
414	
410	
438	
398	
414	
395	
379	
383	
381	
408	
359	
392	
376	
371	
364	
378	
359	
367	
377	
337	
362	
373	
357	
303	
352	
342	
355	
341	
320	
321	
309	
326	
272	
313	
291	
308	
298	
309	
319	
291	
290	
285	
271	
297	
299	
301	
260	
280	
256	
284	
265	
273	
260	
290	
249	
249	
243	
230	
257	
245	
232	
258	
206	
216	
247	
249	
226	
229	
232	
228	
212	
237	
211	
233	
199	
201	
177	
206	
188	
213	
209	
184	
206	
213	
198	
174	
171	
207	
189	
174	
195	
192	
203	
205	
176	
156	
181	
170	
172	
170	
180	
186	
172	
169	
171	
145	
170	
202	
145	
157	
161	
150	
177	
143	
170	
145	
137	
150	
156	
136	
175	
157	
144	
154	
144	
148	
154	
144	
160	
130	
132	
151	
149	
126	
127	
160	
138	
116	
119	
127	
144	
121	
128	
121	
117	
113	
140	
125	
119	
143	
113	
130	
132	
126	
114	
94	
103	
125	
125	
88	
109	
123	
98	
121	
105	
123	
94	
111	
114	
121	
113	
87	
103	
129	
99	
107	
100	
87	
89	
111	
94	
90	
92	
84	
97	
108	
128	
110	
107	
100	
108	
95	
95	
107	
93	
76	
98	
92	
101	
99	
107	
85	
89	
96	
76	
87	
88	
102	
92	
84	
78	
90	
94	
72	
85	
82	
74	
73	
92	
77	
66	
82	
78	
71	
76	
96	
75	
71	
61	
68	
60	
76	
69	
64	
74	
74	
65	
66	
77	
78	
63	
69	
75	
57	
74	
66	
62	
74	
65	
67	
63	
48	
70	
68	
66	
67	
61	
64	
49	
68	
55	
80	
65	
67	
50	
58	
57	
64	
60	
60	
58	
60	
49	
66	
53	
56	
49	
75	
56	
47	
54	
60	
61	
61	
59	
68	
50	
67	
59	
55	
51	
51	
56	
46	
53	
41	
50	
57	
48	
55	
49	
47	
51	
57	
51	
66	
50	
52	
48	
44	
36	
37	
53	
42	
43	
53	
37	
46	
47	
50	
49	
43	
55	
40	
39	
39	
36	
46	
46	
45	
52	
29	
43	
37	
36	
35	
52	
42	
42	
47	
35	
43	
36	
44	
44	
50	
36	
45	
40	
48	
36	
31	
33	
35	
42	
35	
32	
42	
38	
35	
38	
42	
29	
42	
42	
51	
35	
27	
28	
29	
38	
36	
33	
26	
44	
28	
26	
36	
28	
31	
34	
47	
33	
29	
27	
29	
43	
28	
42	
43	
23	
31	
24	
26	
34	
43	
34	
21	
30	
33	
30	
38	
33	
31	
34	
38	
29	
27	
17	
37	
28	
27	
32	
30	
27	
27	
34	
34	
25	
39	
31	
24	
25	
23	
21	
27	
22	
26	
25	
25	
32	
23	
19	
27	
23	
26	
36	
21	
24	
25	
27	
30	
28	
21	
27	
26	
25	
29	
39	
26	
25	
20	
27	
26	
29	
30	
13	
29	
22	
32	
25	
21	
28	
22	
28	
25	
27	
28	
27	
28	
23	
27	
28	
27	
22	
26	
18	
27	
31	
29	
24	
20	
21	
24	
24	
18	
23	
16	
23	
25	
19	
26	
25	
22	
23	
25	
23	
17	
23	
23	
18	
25	
26	
18	
32	
15	
20	
21	
22	
17	
30	
17	
22	
22	
26	
19	
25	
13	
21	
28	
30	
21	
21	
17	
22	
17	
13	
26	
20	
17	
18	
22	
11	
17	
21	
20	
14	
22	
21	
15	
25	
21	
14	
21	
25	
22	
22	
23	
13	
18	
17	
11	
16	
18	
15	
19	
17	
14	
19	
23	
18	
20	
14	
19	
13	
18	
15	
12	
19	
20	
12	
15	
15	
13	
22	
14	
18	
9	
14	
16	
18	
14	
20	
13	
15	
22	
18	
19	
17	
17	
22	
13	
20	
16	
12	
13	
14	
17	
17	
15	
21	
12	
17	
17	
18	
14	
17	
17	
20	
13	
18	
15	
15	
16	
11	
17	
14	
11	
13	
13	
19	
17	
12	
15	
16	
7	
19	
16	
15	
11	
19	
14	
16	
19	
12	
17	
15	
19	
8	
16	
15	
17	
16	
15	
15	
12	
11	
16	
16	
11	
19	
9	
9	
10	
16	
12	
14	
13	
10	
20	
13	
11	
13	
12	
15	
10	
18	
12	
14	
12	
11	
15	
17	
11	
15	
15	
11	
8	
11	
16	
16	
14	
14	
11	
14	
12	
17	
16	
9	
12	
11	
9	
8	
12	
19	
10	
11	
6	
17	
8	
14	
9	
16	
14	
19	
20	
16	
14	
10	
12	
15	
20	
11	
12	
15	
16	
11	
13	
14	
16	
7	
12	
4	
14	
14	
9	
19	
13	
12	
8	
9	
11	
13	
10	
11	
10	
16	
14	
7	
12	
10	
13	
10	
9	
12	
12	
12	
9	
15	
11	
11	
11	
12	
12	
12	
16	
13	
12	
17	
16	
16	
11	
7	
8	
9	
10	
15	
11	
15	
9	
12	
7	
18	
9	
11	
12	
8	
9	
15	
19	
11	
11	
8	
11	
9	
9	
15	
10	
11	
11	
13	
5	
14	
12	
9	
9	
10	
14	
6	
10	
9	
15	
5	
12	
7	
8	
13	
13	
8	
11	
10	
8	
11	
10	
9	
9	
6	
14	
11	
8	
11	
9	
12	
13	
5	
4	
9	
14	
7	
12	
10	
11	
9	
9	
8	
15	
9	
10	
9	
8	
6	
6	
5	
13	
9	
15	
13	
9	
13	
10	
9	
8	
10	
10	
7	
10	
5	
9	
7	
7	
11	
9	
9	
14	
11	
11	
3	
11	
8	
12	
11	
7	
4	
12	
12	
9	
6	
10	
9	
2	
6	
13	
10	
14	
10	
9	
10	
5	
2	
14	
13	
8	
6	
5	
6	
11	
8	
5	
11	
6	
7	
9	
6	
6	
10	
9	
11	
5	
9	
11	
6	
18	
11	
6	
9	
6	
14	
8	
4	
6	
11	
8	
8	
5	
12	
4	
9	
9	
9	
4	
5	
7	
3	
11	
3	
7	
10	
6	
10	
13	
10	
3	
4	
2	
10	
9	
7	
8	
8	
6	
13	
10	
9	
6	
10	
6	
13	
10	
11	
1	
12	
7	
8	
12	
7	
8	
5	
13	
7	
8	
5	
8	
6	
10	
8	
6	
9	
12	
5	
8	
8	
5	
11	
8	
5	
9	
10	
7	
8	
3	
10	
10	
9	
8	
11	
4	
3	
7	
8	
13	
5	
5	
7	
6	
11	
4	
7	
10	
5	
8	
10	
4	
4	
10	
10	
9	
6	
8	
7	
9	
9	
6	
9	
11	
8	
6	
4	
11	
8	
6	
7	
13	
5	
6	
7	
9	
7	
7	
3	
4	
4	
8	
8	
6	
11	
7	
7	
3	
7	
16	
8	
8	
9	
9	
11	
7	
9	
9	
7	
8	
13	
9	
5	
3	
7	
8	
9	
7	
9	
10	
6	
7	
9	
9	
6	
10	
13	
4	
6	
5	
9	
8	
7	
9	
7	
5	
10	
8	
8	
7	
11	
7	
5	
12	
6	
6	
7	
5	
10	
8	
7	
8	
10	
4	
8	
5	
9	
10	
10	
6	
7	
5	
9	
5	
5	
5	
7	
3	
10	
7	
10	
8	
11	
7	
9	
7	
4	
9	
3	
7	
7	
7	
11	
2	
7	
6	
6	
5	
6	
10	
6	
1	
6	
7	
6	
4	
7	
7	
2	
11	
5	
11	
9	
12	
6	
8	
7	
5	
4	
4	
13	
11	
4	
10	
7	
10	
7	
5	
7	
4	
6	
5	
10	
9	
4	
10	
6	
7	
7	
6	
3	
5	
4	
6	
4	
8	
9	
9	
8	
11	
3	
7	
5	
6	
1	
5	
11	
8	
9	
6	
8	
6	
7	
9	
6	
4	
11	
6	
11	
6	
5	
4	
7	
7	
5	
6	
5	
4	
3	
8	
11	
6	
7	
3	
7	
9	
8	
5	
4	
8	
7	
5	
4	
11	
2	
10	
6	
9	
8	
7	
1	
9	
6	
9	
9	
6	
3	
9	
5	
3	
4	
12	
7	
5	
5	
6	
5	
8	
2	
4	
8	
3	
4	
8	
9	
8	
3	
3	
9	
5	
7	
7	
5	
8	
7	
6	
5	
5	
4	
6	
7	
9	
3	
3	
4	
6	
10	
5	
3	
4	
4	
3	
6	
3	
8	
4	
4	
8	
6	
10	
5	
4	
3	
3	
6	
6	
11	
5	
6	
5	
6	
3	
3	
6	
8	
4	
7	
6	
7	
8	
6	
5	
2	
4	
10	
4	
2	
5	
6	
9	
5	
6	
5	
4	
4	
4	
9	
8	
10	
5	
10	
11	
3	
7	
9	
5	
5	
12	
3	
8	
8	
7	
3	
10	
5	
1	
4	
7	
8	
8	
6	
6	
5	
8	
7	
7	
8	
8	
6	
8	
6	
13	
5	
8	
9	
2	
5	
3	
13	
8	
6	
9	
7	
7	
4	
6	
5	
3	
6	
5	
5	
2	
2	
6	
3	
5	
5	
9	
4	
2	
4	
6	
6	
4	
5	
3	
10	
2	
6	
6	
8	
7	
3	
4	
6	
9	
10	
3	
8	
5	
6	
6	
6	
5	
6	
4	
5	
5	
7	
8	
4	
6	
8	
3	
2	
5	
6	
5	
6	
9	
4	
5	
6	
5	
5	
10	
5	
2	
4	
4	
5	
5	
10	
9	
12	
7	
7	
6	
6	
7	
5	
4	
8	
5	
4	
0	
1	
11	
7	
5	
8	
5	
10	
8	
7	
8	
8	
4	
3	
6	
8	
4	
3	
1	
7	
4	
4	
6	
8	
10	
2	
6	
5	
6	
6	
10	
3	
5	
9	
7	
12	
7	
8	
3	
5	
6	
4	
8	
10	
7	
6	
4	
7	
6	
7	
3	
6	
8	
3	
5	
6	
3	
6	
6	
9	
6	
3	
4	
12	
5	
6	
5	
7	
3	
8	
6	
6	
4	
6	
2	
6	
6	
15	
4	
4	
9	
4	
4	
6	
6	
3	
4	
5	
2	
6	
7	
8	
8	
1	
5	
4	
7	
3	
4	
1	
7	
9	
7	
6	
5	
6	
8	
7	
8	
4	
8	
9	
3	
4	
1	
8	
9	
3	
10	
1	
9	
4	
3	
4	
6	
4	
3	
6	
5	
6	
6	
4	
4	
7	
6	
3	
10	
4	
7	
4	
6	
6	
4	
5	
3	
5	
8	
5	
2	
6	
5	
4	
9	
5	
6	
6	
5	
5	
6	
7	
8	
4	
6	
7	
5	
4	
4	
6	
8	
5	
3	
5	
5	
7	
4	
7	
0	
3	
10	
7	
7	
4	
2	
4	
8	
4	
2	
2	
5	
7	
5	
5	
2	
6	
6	
6	
4	
7	
4	
9	
5	
6	
3	
6	
3	
3	
5	
5	
4	
5	
3	
5	
4	
4	
3	
5	
6	
6	
1	
6	
6	
7	
5	
6	
5	
6	
7	
7	
9	
3	
7	
11	
1	
2	
1	
4	
9	
9	
4	
3	
4	
3	
6	
1	
2	
4	
6	
6	
4	
9	
4	
3	
6	
1	
5	
7	
5	
2	
3	
5	
6	
4	
2	
8	
2	
7	
6	
9	
3	
10	
2	
8	
5	
7	
5	
6	
5	
3	
4	
4	
1	
3	
4	
1	
4	
2	
3	
4	
5	
7	
6	
3	
4	
6	
3	
1	
6	
7	
8	
2	
3	
5	
7	
5	
6	
1	
1	
4	
4	
6	
3	
6	
4	
3	
5	
3	
6	
6	
7	
4	
3	
7	
10	
6	
0	
3	
3	
1	
8	
4	
2	
0	
7	
4	
4	
3	
6	
4	
7	
6	
5	
7	
6	
8	
6	
6	
9	
7	
7	
3	
8	
4	
6	
8	
2	
7	
6	
1	
8	
6	
4	
6	
4	
8	
6	
4	
9	
6	
6	
6	
7	
5	
6	
2	
2	
1	
6	
7	
5	
3	
6	
8	
5	
3	
6	
5	
4	
6	
2	
6	
5	
7	
7	
7	
4	
4	
4	
7	
5	
5	
5	
4	
3	
5	
7	
4	
6	
5	
4	
2	
6	
2	
7	
8	
6	
3	
3	
8	
8	
7	
4	
5	
11	
4	
4	
6	
5	
4	
7	
4	
7	
5	
5	
3	
1	
5	
2	
3	
1	
6	
4	
2	
4	
4	
8	
5	
8	
3	
5	
4	
2	
4	
5	
6	
1	
6	
3	
3	
1	
7	
0	
3	
3	
4	
4	
7	
4	
4	
9	
2	
4	
4	
3	
4	
2	
9	
6	
3	
6	
5	
4	
3	
5	
3	
7	
9	
5	
3	
4	
3	
6	
2	
8	
4	
6	
4	
4	
2	
5	
4	
5	
3	
7	
5	
8	
5	
6	
3	
6	
3	
9	
7	
5	
7	
4	
5	
5	
3	
4	
2	
1	
2	
4	
2	
6	
4	
4	
8	
3	
7	
3	
4	
7	
8	
2	
1	
7	
6	
3	
3	
3	
5	
7	
5	
6	
4	
5	
6	
1	
4	
2	
3	
5	
2	
5	
7	
5	
5	
4	
5	
3	
6	
4	
15	
6	
4	
2	
6	
1	
3	
4	
6	
4	
6	
4	
5	
2	
4	
2	
4	
2	
4	
5	
4	
2	
4	
4	
5	
7	
4	
6	
6	
4	
2	
3	
5	
9	
4	
4	
6	
5	
4	
2	
3	
2	
1	
3	
5	
10	
4	
5	
4	
4	
7	
6	
6	
5	
3	
8	
8	
7	
5	
0	
7	
3	
7	
6	
4	
6	
5	
6	
9	
3	
3	
6	
7	
5	
6	
1	
2	
3	
3	
5	
2	
4	
5	
5	
3	
4	
3	
5	
4	
7	
1	
5	
4	
4	
5	
3	
2	
5	
4	
3	
10	
5	
2	
2	
4	
4	
3	
4	
4	
6	
2	
9	
5	
3	
4	
1	
2	
2	
3	
3	
4	
7	
3	
8	
5	
6	
4	
4	
4	
3	
1	
3	
7	
5	
2	
4	
4	
9	
10	
4	
4	
1	
5	
7	
3	
6	
11	
4	
8	
7	
4	
2	
4	
7	
5	
5	
2	
2	
2	
8	
2	
5	
6	
2	
6	
6	
4	
0	
5	
2	
3	
3	
4	
1	
4	
2	
5	
2	
5	
3	
5	
2	
7	
3	
4	
6	
10	
6	
4	
3	
3	
2	
3	
5	
4	
7	
1	
7	
4	
6	
3	
2	
3	
6	
5	
5	
4	
6	
6	
3	
7	
5	
1	
5	
7	
8	
4	
4	
5	
6	
4	
6	
6	
1	
5	
4	
3	
6	
2	
2	
7	
1	
2	
7	
6	
5	
5	
3	
4	
8	
4	
3	
3	
4	
3	
10	
3	
6	
3	
7	
10	
5	
2	
4	
2	
8	
5	
5	
1	
4	
6	
2	
8	
5	
8	
3	
3	
2	
5	
5	
4	
0	
4	
5	
3	
5	
4	
4	
4	
6	
3	
4	
5	
8	
6	
6	
6	
2	
4	
9	
6	
2	
1	
1	
4	
2	
4	
1	
6	
2	
2	
4	
5	
0	
2	
5	
4	
5	
2	
4	
7	
4	
1	
3	
5	
3	
6	
4	
2	
1	
7	
5	
3	
3	
5	
8	
7	
3	
5	
7	
4	
3	
6	
8	
7	
3	
2	
3	
8	
3	
3	
3	
5	
7	
3	
5	
5	
6	
4	
2	
4	
2	
0	
6	
3	
5	
3	
3	
6	
1	
7	
5	
3	
3	
2	
5	
3	
4	
6	
3	
2	
4	
5	
1	
7	
2	
2	
4	
6	
6	
3	
10	
2	
2	
0	
6	
2	
6	
7	
3	
4	
4	
3	
8	
10	
4	
2	
5	
4	
6	
11	
3	
4	
3	
3	
4	
0	
8	
3	
6	
7	
4	
5	
5	
3	
3	
5	
8	
3	
7	
4	
11	
6	
4	
3	
5	
3	
1	
2	
2	
3	
6	
4	
4	
1	
5	
5	
5	
6	
3	
4	
5	
5	
7	
4	
7	
5	
10	
4	
2	
3	
4	
5	
7	
3	
1	
8	
4	
5	
8	
3	
6	
9	
4	
6	
11	
7	
7	
4	
4	
4	
2	
4	
3	
5	
5	
6	
4	
2	
7	
8	
5	
5	
4	
3	
3	
8	
8	
4	
3	
3	
6	
0	
5	
1	
10	
6	
1	
5	
3	
5	
7	
4	
3	
4	
1	
4	
9	
6	
5	
2	
6	
3	
3	
3	
4	
3	
6	
6	
6	
4	
5	
4	
3	
2	
3	
7	
7	
3	
2	
2	
7	
1	
4	
5	
3	
4	
3	
2	
7	
3	
2	
4	
6	
4	
4	
7	
6	
6	
2	
5	
2	
1	
7	
6	
3	
6	
2	
2	
7	
5	
3	
4	
3	
4	
5	
2	
3	
4	
2	
4	
2	
11	
6	
3	
2	
3	
4	
1	
2	
8	
5	
3	
4	
3	
3	
1	
7	
4	
5	
3	
6	
1	
5	
7	
7	
4	
0	
4	
1	
3	
4	
3	
4	
4	
6	
5	
2	
5	
1	
6	
3	
6	
6	
6	
5	
5	
5	
4	
5	
7	
3	
2	
5	
4	
2	
5	
5	
3	
3	
4	
2	
4	
3	
1	
7	
4	
10	
2	
4	
1	
2	
4	
4	
2	
2	
5	
3	
1	
3	
2	
7	
7	
7	
10	
3	
2	
4	
5	
1	
2	
7	
2	
6	
7	
6	
5	
4	
6	
3	
5	
6	
5	
4	
2	
7	
4	
3	
4	
4	
8	
4	
3	
2	
3	
3	
2	
4	
6	
3	
0	
3	
2	
4	
5	
3	
9	
6	
4	
2	
4	
5	
2	
2	
3	
4	
6	
2	
5	
3	
3	
9	
6	
4	
4	
5	
2	
8	
2	
4	
3	
4	
2	
7	
5	
4	
3	
3	
8	
3	
2	
9	
7	
7	
3	
3	
2	
4	
4	
3	
2	
3	
1	
3	
2	
6	
2	
1	
5	
2	
5	
2	
3	
4	
8	
5	
2	
5	
6	
4	
3	
4	
3	
5	
2	
6	
3	
2	
5	
6	
4	
1	
4	
2	
3	
6	
4	
8	
6	
2	
9	
5	
1	
12	
0	
3	
3	
0	
4	
4	
4	
7	
6	
6	
5	
3	
1	
4	
3	
6	
6	
4	
7	
3	
4	
3	
4	
3	
4	
3	
3	
7	
5	
1	
6	
5	
3	
4	
5	
5	
2	
5	
4	
8	
4	
4	
3	
2	
5	
8	
2	
5	
2	
3	
9	
7	
3	
3	
6	
9	
4	
5	
6	
2	
6	
3	
3	
4	
4	
3	
7	
3	
3	
7	
7	
5	
3	
3	
4	
4	
5	
4	
3	
7	
5	
6	
6	
3	
5	
5	
3	
4	
2	
4	
4	
7	
6	
2	
1	
5	
4	
6	
6	
4	
5	
8	
7	
8	
4	
4	
1	
6	
4	
4	
4	
3	
6	
2	
2	
5	
6	
4	
4	
2	
6	
3	
7	
4	
5	
1	
6	
6	
1	
2	
1	
3	
3	
4	
4	
7	
1	
2	
7	
2	
5	
3	
7	
1	
2	
5	
4	
4	
4	
5	
4	
5	
7	
2	
5	
3	
6	
2	
3	
3	
3	
5	
5	
3	
7	
2	
5	
6	
6	
5	
6	
3	
6	
6	
3	
3	
8	
7	
6	
1	
4	
2	
3	
2	
6	
4	
7	
4	
6	
4	
0	
3	
4	
1	
2	
5	
3	
4	
4	
3	
1	
4	
5	
2	
5	
2	
2	
6	
3	
6	
7	
2	
5	
5	
4	
3	
4	
4	
6	
3	
5	
3	
3	
2	
3	
3	
6	
4	
7	
3	
3	
5	
3	
8	
2	
2	
6	
5	
4	
3	
1	
6	
2	
2	
7	
8	
3	
3	
5	
2	
0	
4	
2	
3	
6	
3	
4	
5	
6	
4	
6	
3	
4	
3	
10	
7	
6	
2	
4	
1	
4	
6	
3	
4	
6	
5	
6	
5	
2	
6	
5	
8	
5	
6	
4	
4	
6	
4	
6	
1	
4	
3	
2	
2	
6	
3	
5	
10	
5	
9	
9	
2	
1	
5	
4	
3	
5	
2	
6	
6	
3	
4	
1	
5	
4	
7	
5	
5	
0	
2	
2	
3	
2	
8	
6	
2	
4	
3	
9	
3	
4	
5	
3	
2	
3	
2	
2	
3	
3	
4	
6	
4	
2	
7	
0	
4	
3	
12	
6	
4	
6	
3	
1	
5	
6	
1	
6	
6	
3	
4	
6	
2	
3	
4	
3	
2	
10	
6	
3	
3	
1	
5	
3	
4	
4	
4	
6	
2	
5	
2	
5	
1	
7	
3	
4	
4	
7	
6	
4	
2	
5	
5	
3	
3	
3	
7	
4	
5	
5	
5	
2	
6	
6	
2	
3	
5	
4	
3	
3	
4	
0	
4	
4	
3	
6	
5	
3	
2	
1	
2	
9	
2	
2	
5	
3	
2	
5	
7	
4	
3	
3	
3	
4	
3	
3	
5	
2	
4	
7	
3	
3	
5	
3	
6	
1	
2	
3	
6	
6	
4	
7	
6	
4	
2	
5	
6	
1	
5	
2	
2	
2	
4	
2	
2	
3	
1	
4	
8	
3	
2	
2	
4	
3	
3	
3	
3	
3	
5	
4	
1	
7	
2	
3	
6	
3	
10	
5	
3	
5	
2	
5	
7	
2	
5	
3	
3	
2	
3	
8	
1	
3	
1	
1	
6	
4	
3	
4	
3	
2	
3	
3	
4	
7	
3	
4	
7	
3	
2	
3	
3	
3	
6	
4	
2	
3	
2	
5	
9	
2	
7	
5	
4	
4	
5	
9	
2	
4	
2	
3	
4	
7	
2	
3	
8	
4	
4	
3	
7	
0	
6	
4	
1	
0	
5	
4	
4	
1	
4	
3	
3	
4	
3	
5	
3	
6	
3	
5	
4	
5	
4	
6	
2	
3	
4	
4	
5	
2	
6	
5	
3	
3	
5	
3	
4	
5	
4	
5	
2	
2	
4	
4	
4	
3	
4	
2	
2	
5	
6	
4	
3	
1	
2	
5	
1	
2	
6	
5	
4	
6	
2	
3	
6	
1	
3	
5	
3	
2	
4	
3	
1	
3	
2	
2	
4	
5	
1	
5	
1	
4	
3	
3	
5	
3	
5	
2	
2	
8	
7	
9	
2	
3	
3	
8	
2	
7	
4	
4	
4	
1	
2	
5	
3	
2	
4	
3	
5	
4	
1	
8	
2	
3	
5	
3	
1	
4	
1	
6	
4	
5	
5	
4	
4	
4	
6	
7	
6	
4	
5	
1	
2	
3	
6	
1	
3	
2	
4	
6	
5	
2	
3	
2	
1	
5	
4	
8	
4	
3	
4	
1	
5	
3	
4	
2	
4	
8	
2	
2	
6	
5	
5	
2	
1	
7	
4	
2	
3	
2	
5	
6	
3	
3	
2	
4	
5	
3	
2	
5	
5	
6	
2	
4	
7	
2	
4	
5	
4	
8	
2	
3	
6	
2	
0	
4	
6	
2	
0	
0	
0	
0	
0	
0	
0	
0	
0	
0	
0	
0	
0	
0	
0	
0	
0	
0	
0	
0	
0	
0	
0	
0	
0	
0	
0	
0	
0	
0	
0	
0	
0	
