#PicoHarp 300  Histogram Data			03/13/2023 03:41:02 PM
#channels per curve
7813
#display curve no.
0	
#memory block no.
0	
#ns/channel
0.1280	
#counts
0	
2	
3	
8	
1	
3	
0	
1	
2	
4	
3	
3	
3	
0	
0	
1	
1	
4	
3	
2	
1	
3	
3	
3	
1	
1	
2	
2	
2	
4	
3	
2	
1	
5	
5	
4	
1	
3	
2	
4	
4	
3	
3	
1	
4	
3	
0	
1	
2	
2	
2	
7	
0	
3	
3	
2	
1	
1	
2	
3	
3	
5	
3	
3	
2	
4	
4	
4	
3	
0	
2	
2	
5	
2	
4	
2	
3	
3	
3	
4	
2	
3	
1	
1	
5	
1	
4	
3	
5	
1	
1	
1	
1	
3	
2	
2	
4	
0	
6	
2	
4	
1	
1	
4	
2	
1	
2	
6	
2	
5	
4	
3	
5	
1	
5	
2	
2	
1	
4	
1	
4	
4	
2	
3	
2	
1	
1	
2	
3	
2	
2	
1	
3	
6	
3	
1	
3	
4	
4	
2	
1	
1	
2	
3	
1	
1	
3	
2	
4	
0	
5	
1	
1	
1	
3	
2	
2	
2	
2	
3	
0	
3	
4	
4	
1	
1	
1	
2	
3	
2	
3	
4	
2	
4	
2	
2	
4	
3	
2	
2	
3	
2	
2	
3	
2	
2	
4	
0	
2	
2	
5	
4	
2	
1	
1	
1	
3	
3	
4	
1	
2	
1	
4	
2	
2	
2	
3	
3	
0	
4	
3	
2	
2	
3	
4	
3	
1	
4	
2	
3	
1	
4	
2	
3	
2	
4	
3	
0	
3	
2	
2	
0	
0	
1	
1	
2	
2	
7	
8	
7	
16	
33	
66	
112	
204	
315	
485	
690	
763	
913	
918	
978	
941	
955	
1000	
938	
957	
923	
935	
894	
893	
882	
826	
835	
849	
774	
853	
789	
799	
745	
798	
747	
758	
710	
711	
760	
696	
751	
656	
632	
633	
705	
662	
645	
705	
658	
638	
617	
573	
647	
614	
609	
596	
575	
593	
588	
577	
563	
567	
544	
581	
526	
591	
586	
573	
573	
544	
508	
542	
535	
521	
528	
514	
514	
450	
468	
501	
482	
484	
464	
506	
497	
484	
481	
499	
433	
465	
467	
464	
436	
457	
422	
424	
429	
395	
459	
419	
451	
394	
413	
428	
390	
434	
449	
418	
405	
393	
394	
375	
378	
415	
364	
398	
399	
396	
376	
390	
349	
366	
389	
362	
355	
355	
386	
369	
353	
378	
340	
332	
368	
345	
305	
335	
328	
325	
351	
328	
313	
309	
326	
315	
321	
331	
307	
317	
309	
324	
303	
315	
339	
272	
294	
309	
294	
265	
296	
307	
295	
279	
263	
314	
291	
282	
279	
297	
285	
282	
278	
283	
316	
277	
316	
285	
279	
278	
254	
281	
272	
263	
274	
249	
259	
254	
267	
250	
241	
246	
253	
276	
224	
258	
236	
256	
225	
219	
221	
214	
249	
231	
233	
246	
221	
241	
193	
211	
239	
217	
200	
220	
230	
200	
232	
221	
233	
199	
226	
194	
223	
188	
210	
190	
215	
185	
219	
200	
167	
210	
187	
190	
209	
207	
175	
173	
230	
198	
191	
202	
196	
181	
197	
213	
191	
199	
217	
185	
183	
177	
189	
203	
180	
178	
192	
176	
162	
193	
188	
194	
149	
204	
172	
163	
169	
158	
166	
167	
192	
157	
163	
144	
160	
194	
150	
178	
178	
174	
158	
168	
150	
160	
164	
148	
144	
125	
158	
153	
159	
147	
150	
176	
134	
147	
143	
144	
165	
154	
129	
150	
124	
153	
142	
172	
148	
144	
140	
164	
137	
131	
129	
152	
157	
132	
138	
138	
129	
147	
152	
129	
124	
139	
141	
137	
158	
123	
124	
135	
138	
119	
127	
137	
130	
117	
134	
115	
124	
130	
128	
131	
108	
129	
123	
130	
124	
116	
139	
127	
126	
136	
125	
116	
141	
120	
118	
104	
110	
104	
101	
103	
126	
127	
112	
126	
110	
121	
113	
92	
121	
103	
102	
101	
106	
109	
103	
115	
110	
114	
121	
110	
89	
92	
103	
87	
103	
102	
102	
77	
102	
104	
105	
100	
96	
99	
96	
104	
104	
92	
112	
94	
97	
115	
112	
79	
98	
109	
93	
92	
106	
87	
87	
79	
84	
104	
101	
86	
81	
103	
91	
105	
93	
89	
90	
97	
87	
97	
80	
111	
94	
109	
90	
80	
83	
83	
91	
97	
100	
80	
77	
79	
97	
80	
82	
79	
93	
83	
71	
80	
79	
91	
90	
94	
85	
70	
92	
75	
72	
88	
71	
65	
76	
74	
80	
91	
61	
75	
71	
70	
75	
89	
92	
74	
84	
75	
73	
77	
69	
101	
74	
62	
65	
74	
60	
86	
74	
69	
80	
88	
66	
64	
67	
90	
61	
72	
74	
87	
78	
54	
81	
66	
79	
69	
58	
60	
68	
84	
68	
56	
78	
68	
64	
65	
70	
79	
54	
60	
64	
70	
66	
74	
65	
64	
66	
71	
47	
68	
60	
69	
64	
70	
61	
70	
61	
56	
65	
66	
64	
67	
64	
52	
66	
44	
63	
63	
63	
51	
52	
71	
64	
57	
70	
67	
61	
53	
56	
56	
73	
53	
61	
50	
55	
50	
53	
63	
56	
56	
59	
51	
58	
61	
62	
56	
63	
69	
52	
57	
43	
51	
52	
39	
65	
53	
57	
45	
44	
45	
52	
54	
48	
42	
63	
54	
49	
45	
38	
46	
44	
48	
37	
64	
44	
61	
58	
36	
45	
50	
44	
38	
56	
37	
47	
55	
43	
43	
40	
44	
49	
46	
51	
43	
37	
55	
55	
53	
55	
53	
45	
54	
59	
57	
47	
43	
48	
40	
48	
46	
48	
47	
37	
55	
39	
36	
47	
38	
40	
51	
32	
55	
52	
51	
45	
47	
51	
52	
42	
37	
37	
39	
37	
44	
46	
34	
36	
33	
36	
42	
55	
41	
34	
44	
40	
43	
43	
54	
40	
50	
40	
39	
51	
37	
48	
42	
41	
38	
43	
43	
40	
27	
39	
26	
29	
40	
43	
47	
31	
36	
43	
42	
35	
51	
38	
33	
36	
26	
41	
38	
48	
33	
57	
37	
30	
35	
28	
35	
43	
34	
46	
33	
40	
32	
47	
38	
39	
39	
30	
36	
35	
36	
32	
32	
30	
40	
35	
32	
41	
34	
37	
46	
38	
45	
28	
35	
37	
29	
33	
34	
28	
28	
29	
34	
28	
34	
32	
33	
31	
27	
28	
26	
28	
34	
41	
40	
30	
38	
34	
36	
27	
29	
32	
35	
30	
39	
32	
31	
31	
33	
33	
31	
30	
31	
35	
26	
23	
23	
29	
41	
41	
29	
35	
39	
32	
30	
24	
32	
30	
25	
29	
30	
35	
26	
24	
38	
21	
38	
29	
27	
22	
36	
25	
34	
24	
35	
42	
34	
26	
34	
38	
22	
27	
28	
30	
24	
25	
22	
26	
24	
23	
32	
35	
31	
37	
25	
26	
34	
29	
26	
28	
14	
31	
22	
36	
28	
30	
31	
15	
32	
20	
33	
34	
34	
28	
22	
26	
28	
21	
31	
26	
26	
31	
39	
27	
29	
29	
23	
26	
32	
36	
22	
24	
22	
30	
30	
25	
29	
27	
29	
18	
27	
27	
24	
31	
23	
24	
27	
21	
22	
17	
25	
19	
19	
20	
29	
23	
23	
29	
26	
18	
20	
29	
21	
23	
24	
16	
23	
20	
18	
24	
24	
37	
27	
26	
19	
16	
29	
25	
24	
36	
18	
25	
21	
22	
20	
21	
25	
32	
26	
23	
23	
31	
20	
25	
16	
18	
19	
22	
30	
23	
17	
25	
16	
20	
21	
20	
32	
16	
21	
25	
20	
20	
17	
20	
25	
17	
14	
25	
23	
19	
17	
24	
15	
20	
28	
26	
25	
21	
22	
27	
22	
26	
31	
16	
19	
21	
18	
27	
17	
19	
15	
19	
19	
20	
26	
24	
23	
18	
28	
17	
23	
19	
25	
24	
19	
21	
13	
22	
16	
15	
17	
16	
18	
11	
19	
22	
21	
23	
23	
16	
18	
17	
17	
23	
15	
22	
22	
19	
19	
21	
18	
22	
14	
18	
29	
12	
20	
17	
16	
22	
28	
23	
20	
16	
21	
16	
21	
18	
23	
23	
19	
13	
12	
22	
21	
15	
24	
15	
21	
16	
15	
10	
17	
14	
13	
16	
17	
13	
16	
18	
20	
18	
13	
16	
21	
19	
20	
18	
24	
22	
22	
15	
13	
18	
17	
18	
22	
17	
19	
10	
18	
13	
19	
19	
22	
19	
20	
22	
18	
15	
17	
25	
10	
21	
18	
13	
11	
9	
13	
19	
23	
13	
16	
21	
15	
22	
16	
23	
12	
20	
17	
14	
17	
22	
17	
15	
13	
16	
14	
10	
18	
24	
15	
16	
16	
13	
15	
20	
13	
15	
12	
12	
22	
15	
8	
17	
19	
14	
17	
13	
12	
11	
27	
19	
22	
13	
21	
14	
14	
18	
22	
15	
8	
16	
18	
5	
13	
12	
13	
10	
13	
18	
14	
10	
20	
13	
22	
9	
11	
11	
19	
16	
15	
24	
12	
11	
21	
13	
6	
19	
16	
21	
12	
12	
10	
18	
6	
13	
14	
21	
23	
13	
14	
15	
14	
16	
22	
20	
20	
18	
14	
12	
15	
14	
13	
10	
13	
14	
7	
19	
18	
10	
19	
18	
10	
13	
9	
14	
10	
11	
13	
15	
14	
14	
18	
17	
24	
14	
17	
6	
18	
18	
19	
15	
6	
15	
12	
27	
16	
12	
12	
17	
11	
18	
14	
18	
15	
9	
16	
25	
13	
12	
12	
11	
11	
15	
13	
15	
9	
11	
16	
17	
12	
10	
9	
10	
21	
9	
9	
12	
16	
17	
17	
13	
10	
15	
20	
6	
13	
15	
14	
15	
11	
16	
13	
9	
16	
13	
13	
14	
12	
9	
13	
16	
10	
11	
17	
12	
16	
14	
8	
15	
16	
10	
10	
6	
16	
10	
10	
16	
7	
11	
13	
19	
15	
12	
16	
18	
15	
12	
7	
8	
15	
12	
16	
11	
13	
12	
12	
11	
10	
10	
12	
7	
10	
9	
12	
8	
6	
12	
10	
12	
12	
8	
14	
11	
11	
8	
13	
7	
11	
10	
11	
13	
15	
18	
9	
10	
11	
8	
9	
18	
6	
14	
13	
13	
15	
13	
9	
7	
13	
11	
16	
12	
17	
8	
13	
7	
12	
8	
12	
12	
17	
14	
13	
5	
12	
16	
11	
13	
11	
12	
10	
11	
11	
6	
11	
7	
13	
13	
6	
10	
3	
15	
11	
11	
9	
11	
7	
12	
8	
10	
13	
12	
14	
9	
9	
3	
13	
20	
10	
9	
16	
7	
13	
12	
5	
9	
10	
16	
11	
16	
14	
6	
14	
11	
13	
14	
11	
11	
11	
12	
17	
9	
14	
10	
8	
10	
11	
10	
7	
11	
10	
11	
10	
13	
18	
9	
10	
12	
14	
10	
14	
12	
9	
11	
8	
13	
13	
8	
15	
9	
7	
7	
13	
9	
5	
9	
10	
11	
12	
7	
8	
4	
5	
7	
9	
9	
5	
6	
10	
16	
10	
12	
6	
7	
15	
10	
6	
9	
9	
9	
10	
11	
12	
10	
9	
9	
11	
9	
5	
9	
10	
12	
7	
14	
3	
16	
14	
15	
11	
7	
10	
12	
7	
14	
16	
10	
10	
13	
14	
13	
12	
14	
11	
15	
5	
9	
6	
11	
13	
9	
12	
7	
9	
3	
10	
7	
5	
7	
7	
13	
9	
8	
5	
8	
15	
13	
4	
7	
10	
14	
10	
6	
13	
10	
6	
9	
5	
12	
10	
9	
4	
8	
6	
10	
7	
7	
10	
10	
16	
10	
7	
14	
10	
9	
11	
8	
15	
7	
6	
14	
4	
2	
6	
6	
4	
11	
9	
8	
8	
6	
6	
11	
6	
7	
6	
9	
9	
7	
7	
7	
9	
8	
9	
11	
14	
6	
8	
12	
6	
9	
11	
12	
6	
12	
8	
6	
13	
12	
11	
6	
10	
12	
10	
7	
8	
9	
2	
15	
8	
14	
11	
12	
12	
4	
7	
8	
2	
9	
3	
6	
4	
7	
7	
8	
7	
5	
11	
9	
7	
12	
10	
13	
5	
13	
8	
12	
12	
8	
11	
6	
8	
2	
8	
11	
11	
5	
10	
9	
7	
11	
8	
10	
3	
11	
14	
13	
7	
6	
9	
3	
4	
7	
4	
13	
7	
8	
4	
6	
10	
7	
5	
3	
9	
6	
8	
10	
8	
11	
7	
5	
10	
4	
10	
5	
11	
8	
3	
7	
8	
6	
7	
12	
5	
5	
7	
5	
14	
10	
9	
7	
7	
7	
8	
8	
13	
6	
5	
9	
11	
7	
6	
4	
9	
8	
6	
3	
11	
8	
6	
7	
3	
5	
7	
12	
8	
14	
4	
8	
10	
5	
5	
6	
8	
9	
7	
8	
10	
7	
9	
5	
13	
9	
5	
7	
8	
4	
6	
8	
8	
10	
4	
9	
5	
6	
4	
7	
4	
8	
6	
7	
8	
4	
10	
5	
14	
4	
8	
14	
8	
5	
6	
15	
7	
10	
11	
5	
5	
7	
6	
11	
7	
6	
6	
10	
5	
10	
7	
10	
8	
5	
7	
9	
7	
2	
9	
10	
13	
3	
9	
4	
9	
1	
10	
10	
6	
7	
0	
4	
7	
8	
3	
18	
4	
7	
10	
10	
5	
8	
5	
8	
2	
6	
7	
9	
5	
9	
7	
9	
6	
6	
10	
7	
4	
9	
8	
8	
7	
8	
9	
5	
9	
6	
16	
12	
6	
6	
5	
6	
4	
8	
11	
6	
5	
8	
4	
7	
5	
6	
8	
7	
11	
9	
10	
5	
9	
9	
9	
7	
5	
8	
8	
10	
10	
6	
7	
8	
2	
9	
11	
5	
6	
3	
4	
8	
9	
8	
7	
8	
3	
6	
7	
5	
7	
6	
14	
8	
5	
3	
6	
7	
9	
5	
6	
7	
5	
1	
6	
7	
8	
6	
8	
7	
11	
7	
9	
8	
2	
10	
4	
8	
9	
7	
3	
3	
8	
3	
5	
12	
9	
2	
4	
8	
8	
5	
6	
11	
6	
5	
7	
4	
7	
6	
6	
4	
9	
4	
7	
6	
7	
9	
8	
5	
9	
5	
6	
7	
10	
5	
4	
3	
9	
5	
13	
5	
7	
4	
10	
6	
7	
9	
3	
2	
6	
4	
4	
9	
7	
10	
9	
10	
10	
8	
4	
2	
9	
7	
7	
6	
7	
5	
6	
7	
11	
5	
7	
9	
3	
4	
4	
4	
6	
5	
6	
4	
6	
6	
12	
5	
9	
8	
4	
6	
5	
6	
7	
10	
11	
2	
6	
6	
6	
3	
3	
6	
3	
4	
4	
5	
7	
4	
6	
7	
9	
7	
3	
7	
7	
9	
7	
2	
7	
4	
4	
9	
7	
6	
2	
8	
6	
2	
8	
9	
5	
7	
8	
9	
9	
1	
5	
6	
5	
8	
7	
6	
5	
4	
4	
7	
2	
2	
6	
9	
8	
3	
7	
5	
6	
7	
6	
8	
4	
12	
3	
6	
12	
7	
6	
3	
4	
6	
7	
11	
3	
7	
10	
11	
5	
2	
3	
5	
7	
9	
5	
8	
6	
3	
8	
5	
8	
6	
3	
4	
6	
7	
9	
8	
7	
7	
5	
6	
6	
5	
7	
6	
6	
4	
8	
1	
10	
2	
8	
6	
7	
4	
6	
7	
7	
6	
8	
8	
7	
4	
8	
10	
3	
6	
5	
2	
8	
5	
4	
2	
7	
5	
4	
5	
4	
3	
7	
9	
4	
9	
5	
3	
8	
7	
10	
7	
7	
4	
4	
4	
4	
5	
2	
7	
2	
7	
6	
4	
7	
3	
4	
10	
6	
5	
5	
7	
6	
4	
5	
3	
4	
7	
5	
7	
5	
5	
8	
6	
5	
5	
5	
2	
5	
9	
4	
11	
6	
7	
9	
5	
6	
8	
9	
5	
7	
5	
7	
5	
10	
6	
10	
3	
10	
4	
4	
8	
2	
7	
6	
3	
5	
6	
5	
7	
10	
8	
5	
7	
5	
4	
1	
8	
9	
7	
3	
3	
6	
4	
4	
7	
6	
10	
7	
9	
2	
6	
5	
4	
5	
9	
4	
2	
1	
9	
4	
6	
6	
3	
5	
10	
7	
4	
5	
8	
8	
4	
6	
7	
6	
3	
4	
8	
3	
5	
2	
5	
5	
8	
4	
7	
9	
2	
1	
5	
6	
5	
3	
3	
6	
4	
4	
4	
5	
3	
5	
7	
0	
7	
12	
5	
12	
3	
5	
9	
7	
4	
5	
5	
7	
4	
7	
6	
7	
7	
2	
7	
5	
8	
6	
7	
6	
7	
6	
6	
4	
6	
4	
7	
5	
7	
5	
5	
4	
3	
6	
4	
9	
5	
9	
6	
8	
6	
4	
5	
3	
5	
4	
3	
7	
5	
7	
3	
7	
4	
5	
6	
5	
7	
7	
1	
7	
4	
2	
5	
2	
7	
3	
3	
9	
8	
9	
2	
6	
9	
7	
5	
3	
5	
4	
5	
2	
5	
5	
8	
5	
2	
2	
3	
9	
2	
5	
5	
2	
5	
10	
3	
5	
5	
4	
2	
4	
1	
5	
5	
4	
6	
1	
7	
2	
1	
6	
5	
2	
5	
5	
5	
3	
5	
7	
6	
0	
9	
7	
10	
5	
7	
7	
5	
2	
5	
5	
3	
6	
2	
5	
4	
4	
6	
3	
4	
4	
5	
4	
3	
10	
5	
4	
3	
1	
5	
4	
2	
8	
8	
5	
5	
5	
4	
6	
3	
7	
4	
5	
3	
2	
3	
7	
5	
8	
5	
6	
4	
1	
6	
7	
6	
4	
1	
3	
5	
5	
8	
8	
4	
3	
6	
1	
2	
7	
7	
4	
5	
6	
5	
2	
6	
4	
3	
4	
3	
12	
4	
6	
6	
4	
7	
2	
3	
5	
0	
7	
7	
2	
6	
6	
5	
2	
4	
4	
3	
3	
5	
2	
3	
1	
2	
6	
6	
2	
8	
1	
5	
5	
3	
1	
3	
3	
6	
3	
8	
2	
6	
3	
7	
5	
4	
13	
2	
7	
3	
9	
6	
3	
3	
9	
6	
8	
4	
4	
2	
6	
3	
4	
4	
7	
1	
4	
6	
3	
5	
2	
2	
8	
2	
4	
4	
2	
5	
3	
3	
5	
5	
5	
3	
3	
8	
3	
4	
5	
8	
6	
10	
4	
3	
5	
5	
2	
4	
4	
6	
5	
4	
6	
4	
3	
4	
3	
3	
2	
7	
3	
8	
2	
3	
5	
2	
7	
2	
2	
3	
1	
3	
5	
7	
4	
4	
3	
3	
6	
12	
4	
5	
4	
2	
3	
3	
4	
9	
6	
3	
5	
3	
4	
4	
7	
5	
4	
3	
5	
4	
7	
5	
3	
2	
5	
4	
5	
4	
6	
7	
2	
5	
1	
5	
2	
2	
3	
6	
8	
7	
4	
3	
1	
2	
8	
6	
2	
8	
3	
6	
8	
4	
4	
8	
2	
3	
8	
2	
4	
3	
7	
0	
5	
5	
5	
4	
9	
6	
5	
5	
6	
4	
3	
2	
3	
5	
12	
7	
5	
3	
5	
2	
4	
8	
5	
4	
4	
4	
3	
2	
4	
0	
3	
5	
4	
6	
2	
5	
5	
9	
3	
3	
5	
2	
5	
3	
5	
3	
3	
3	
2	
4	
6	
3	
7	
4	
2	
7	
2	
6	
2	
7	
4	
4	
1	
7	
6	
4	
5	
3	
4	
5	
8	
8	
4	
3	
8	
3	
2	
4	
4	
1	
6	
4	
8	
5	
3	
7	
5	
5	
2	
4	
5	
3	
2	
5	
10	
5	
4	
3	
7	
6	
5	
4	
2	
6	
2	
10	
9	
3	
5	
3	
2	
4	
2	
4	
4	
4	
1	
2	
4	
5	
3	
7	
5	
6	
7	
6	
3	
2	
6	
2	
3	
6	
3	
3	
7	
4	
11	
2	
4	
3	
3	
5	
7	
6	
6	
1	
5	
2	
2	
2	
2	
5	
4	
9	
2	
3	
3	
4	
5	
4	
1	
3	
2	
3	
4	
5	
1	
3	
2	
2	
3	
4	
7	
4	
4	
4	
6	
3	
6	
3	
2	
4	
6	
7	
5	
4	
3	
6	
4	
1	
3	
4	
3	
5	
3	
4	
3	
4	
7	
5	
2	
3	
5	
1	
3	
4	
5	
4	
0	
7	
6	
3	
2	
1	
7	
4	
2	
7	
4	
5	
4	
8	
3	
1	
3	
9	
7	
6	
2	
3	
2	
2	
3	
8	
7	
10	
6	
3	
6	
8	
3	
4	
9	
4	
6	
5	
5	
8	
9	
5	
3	
4	
2	
2	
4	
3	
2	
5	
5	
6	
4	
5	
4	
4	
5	
2	
3	
2	
5	
10	
3	
4	
3	
0	
0	
7	
4	
1	
3	
5	
3	
5	
3	
2	
3	
4	
6	
2	
2	
2	
5	
4	
5	
4	
4	
4	
3	
2	
3	
6	
5	
0	
7	
2	
1	
2	
4	
5	
1	
5	
2	
2	
4	
5	
2	
5	
2	
3	
3	
1	
6	
3	
6	
4	
5	
3	
2	
4	
4	
1	
4	
4	
4	
7	
4	
4	
1	
8	
4	
1	
5	
5	
3	
3	
4	
2	
3	
6	
3	
1	
6	
2	
1	
3	
2	
6	
4	
5	
3	
2	
5	
7	
4	
2	
5	
8	
7	
6	
7	
1	
4	
4	
4	
2	
2	
1	
0	
9	
5	
3	
8	
5	
1	
8	
4	
7	
5	
4	
4	
3	
1	
7	
7	
6	
7	
5	
4	
4	
2	
5	
4	
4	
1	
6	
0	
4	
3	
4	
0	
1	
2	
2	
1	
7	
3	
5	
5	
2	
3	
1	
3	
5	
2	
2	
5	
5	
3	
6	
8	
5	
1	
1	
5	
1	
4	
3	
4	
3	
2	
2	
5	
3	
3	
8	
1	
3	
0	
2	
3	
2	
3	
3	
2	
2	
3	
5	
5	
4	
1	
5	
3	
3	
6	
4	
2	
3	
0	
4	
0	
6	
4	
4	
2	
3	
4	
2	
6	
3	
4	
2	
6	
3	
2	
2	
0	
2	
3	
5	
6	
4	
2	
5	
7	
7	
4	
4	
3	
5	
4	
4	
4	
0	
6	
6	
1	
5	
3	
3	
3	
1	
4	
4	
4	
4	
6	
6	
4	
4	
5	
4	
3	
2	
6	
4	
8	
3	
3	
4	
5	
2	
4	
1	
5	
4	
4	
8	
3	
4	
4	
6	
2	
7	
4	
5	
5	
3	
6	
3	
4	
5	
4	
6	
4	
4	
0	
4	
9	
2	
2	
4	
4	
5	
1	
4	
2	
4	
6	
5	
4	
2	
5	
2	
3	
2	
4	
4	
5	
1	
2	
4	
3	
1	
6	
8	
7	
3	
2	
4	
3	
1	
4	
4	
7	
1	
7	
1	
1	
2	
1	
4	
4	
3	
3	
3	
7	
3	
1	
6	
7	
1	
4	
1	
3	
3	
5	
3	
6	
4	
5	
2	
3	
4	
5	
4	
6	
3	
5	
3	
5	
7	
3	
4	
3	
4	
1	
6	
4	
3	
5	
6	
4	
3	
7	
9	
4	
3	
2	
8	
8	
1	
3	
3	
6	
0	
4	
6	
12	
5	
2	
3	
2	
5	
3	
4	
4	
8	
4	
2	
6	
6	
2	
3	
6	
0	
2	
3	
5	
1	
3	
2	
6	
2	
4	
3	
7	
6	
1	
5	
2	
1	
2	
3	
3	
4	
2	
5	
4	
3	
2	
3	
3	
1	
5	
2	
4	
6	
1	
9	
4	
1	
9	
4	
7	
1	
3	
10	
1	
3	
5	
5	
1	
4	
4	
4	
8	
3	
6	
2	
4	
8	
2	
2	
3	
8	
4	
2	
3	
3	
5	
4	
3	
2	
4	
4	
1	
5	
3	
4	
4	
5	
1	
4	
4	
3	
4	
0	
3	
1	
6	
5	
4	
7	
4	
4	
10	
3	
2	
1	
5	
6	
3	
4	
2	
3	
5	
5	
4	
3	
4	
2	
1	
3	
2	
4	
4	
7	
1	
7	
5	
1	
2	
2	
3	
0	
3	
4	
4	
3	
3	
6	
5	
2	
5	
1	
4	
4	
1	
5	
3	
4	
4	
6	
3	
4	
3	
5	
2	
3	
3	
6	
4	
3	
3	
4	
4	
0	
3	
3	
3	
7	
1	
2	
1	
7	
2	
1	
3	
4	
3	
1	
4	
1	
4	
2	
2	
4	
0	
0	
3	
3	
4	
1	
2	
2	
3	
12	
2	
3	
4	
2	
3	
6	
2	
4	
6	
3	
1	
2	
2	
1	
4	
2	
6	
5	
5	
2	
0	
2	
2	
2	
3	
1	
2	
3	
4	
4	
2	
3	
3	
4	
6	
7	
4	
2	
2	
5	
0	
3	
5	
1	
7	
6	
7	
4	
4	
3	
4	
3	
4	
1	
3	
0	
3	
3	
5	
2	
4	
6	
4	
1	
4	
5	
5	
4	
3	
2	
1	
0	
2	
2	
1	
6	
3	
5	
2	
3	
4	
8	
3	
5	
4	
1	
5	
0	
5	
3	
3	
2	
3	
1	
4	
10	
2	
4	
4	
3	
6	
4	
5	
6	
2	
4	
7	
4	
4	
4	
2	
3	
1	
1	
1	
2	
1	
1	
3	
7	
4	
11	
1	
10	
9	
8	
4	
1	
3	
2	
11	
3	
3	
6	
2	
5	
5	
0	
4	
2	
6	
1	
2	
3	
5	
5	
2	
6	
3	
5	
1	
3	
0	
2	
4	
3	
1	
4	
5	
1	
3	
4	
3	
2	
3	
2	
6	
5	
2	
3	
5	
1	
5	
3	
5	
2	
3	
6	
1	
2	
2	
2	
3	
1	
3	
3	
3	
3	
6	
2	
1	
6	
3	
1	
3	
2	
4	
2	
3	
2	
5	
5	
6	
3	
5	
3	
4	
7	
3	
2	
4	
4	
1	
4	
2	
0	
3	
2	
2	
2	
3	
2	
3	
4	
2	
4	
3	
1	
6	
3	
7	
0	
8	
4	
4	
4	
5	
6	
6	
5	
3	
1	
1	
4	
4	
7	
2	
5	
6	
3	
1	
4	
2	
2	
3	
3	
3	
3	
2	
4	
2	
6	
5	
3	
3	
3	
2	
2	
2	
5	
3	
3	
5	
0	
1	
2	
7	
3	
3	
4	
3	
3	
3	
4	
1	
0	
2	
2	
5	
4	
2	
6	
1	
2	
2	
1	
1	
2	
4	
4	
3	
3	
3	
3	
4	
3	
8	
2	
8	
6	
5	
3	
5	
3	
0	
5	
4	
3	
3	
4	
5	
4	
1	
4	
3	
8	
6	
0	
1	
1	
2	
3	
7	
7	
2	
4	
6	
5	
6	
7	
7	
4	
7	
1	
5	
3	
6	
4	
2	
4	
4	
5	
1	
4	
4	
8	
5	
2	
6	
5	
7	
2	
1	
5	
8	
2	
6	
3	
4	
1	
4	
2	
5	
2	
3	
0	
2	
1	
3	
5	
1	
1	
1	
6	
4	
2	
9	
4	
3	
1	
2	
9	
1	
0	
4	
4	
2	
2	
4	
1	
2	
2	
3	
2	
3	
3	
3	
5	
2	
3	
3	
2	
3	
2	
5	
2	
5	
6	
4	
2	
4	
3	
0	
5	
4	
3	
3	
2	
5	
6	
3	
2	
2	
5	
1	
5	
2	
7	
3	
3	
3	
1	
5	
5	
4	
4	
1	
2	
2	
2	
3	
2	
1	
2	
4	
2	
1	
3	
4	
2	
2	
2	
4	
5	
6	
4	
1	
2	
4	
5	
1	
1	
6	
6	
5	
0	
7	
2	
3	
6	
4	
1	
2	
3	
5	
1	
4	
3	
1	
2	
1	
3	
2	
3	
0	
2	
3	
5	
5	
6	
3	
4	
7	
2	
0	
7	
5	
1	
4	
2	
5	
3	
1	
4	
2	
1	
2	
8	
2	
2	
5	
4	
2	
4	
4	
4	
1	
2	
3	
3	
5	
5	
2	
1	
3	
1	
4	
1	
3	
3	
2	
4	
2	
0	
5	
4	
9	
5	
2	
5	
3	
2	
4	
3	
7	
4	
7	
3	
1	
2	
7	
1	
4	
4	
1	
3	
1	
2	
3	
3	
3	
2	
1	
8	
0	
4	
1	
2	
8	
3	
0	
2	
5	
6	
2	
4	
5	
4	
1	
2	
1	
4	
4	
3	
4	
2	
1	
1	
0	
4	
5	
5	
3	
2	
3	
5	
2	
7	
3	
3	
3	
2	
3	
3	
4	
2	
4	
5	
2	
4	
3	
3	
5	
3	
6	
5	
2	
4	
3	
1	
4	
4	
7	
6	
2	
4	
4	
1	
6	
0	
1	
2	
3	
5	
3	
3	
3	
2	
3	
5	
3	
6	
3	
5	
1	
2	
2	
3	
2	
2	
4	
2	
3	
2	
3	
1	
4	
7	
2	
2	
3	
4	
2	
3	
4	
4	
2	
0	
3	
2	
4	
4	
2	
6	
5	
3	
3	
2	
5	
2	
3	
2	
3	
6	
6	
2	
2	
3	
3	
4	
4	
2	
2	
3	
1	
2	
2	
4	
4	
3	
3	
5	
1	
5	
4	
4	
2	
3	
5	
3	
2	
3	
2	
6	
1	
1	
8	
2	
3	
1	
2	
5	
6	
3	
1	
4	
3	
2	
5	
5	
3	
2	
3	
4	
2	
3	
5	
2	
2	
4	
2	
3	
6	
4	
4	
5	
8	
4	
4	
4	
5	
3	
2	
3	
2	
2	
6	
2	
2	
6	
5	
4	
1	
5	
3	
3	
1	
1	
3	
0	
3	
1	
4	
1	
1	
5	
5	
5	
5	
2	
6	
4	
1	
2	
1	
5	
3	
4	
5	
3	
3	
2	
2	
7	
0	
0	
2	
2	
3	
0	
2	
1	
3	
1	
4	
4	
6	
5	
4	
4	
2	
2	
3	
4	
6	
4	
2	
3	
7	
1	
4	
5	
2	
2	
5	
4	
1	
4	
1	
4	
4	
5	
4	
5	
3	
2	
4	
3	
4	
1	
7	
3	
5	
3	
2	
1	
3	
2	
1	
2	
1	
1	
0	
2	
2	
4	
3	
3	
5	
3	
2	
5	
4	
3	
2	
1	
1	
2	
3	
2	
3	
3	
2	
3	
7	
6	
1	
5	
3	
4	
4	
3	
4	
4	
2	
3	
4	
4	
1	
4	
1	
5	
5	
1	
5	
0	
2	
5	
2	
3	
1	
3	
2	
2	
1	
3	
2	
2	
6	
1	
2	
1	
2	
0	
4	
3	
1	
4	
4	
3	
4	
1	
4	
5	
6	
3	
4	
1	
3	
2	
3	
3	
0	
3	
4	
6	
4	
4	
1	
4	
3	
5	
2	
2	
1	
0	
2	
1	
1	
2	
0	
3	
5	
5	
4	
4	
1	
3	
2	
1	
4	
4	
3	
1	
3	
4	
1	
4	
4	
3	
1	
7	
3	
4	
4	
3	
3	
3	
3	
2	
2	
5	
0	
5	
1	
4	
2	
2	
2	
1	
0	
3	
0	
6	
5	
3	
1	
3	
4	
5	
2	
1	
5	
3	
1	
2	
2	
1	
3	
3	
2	
2	
4	
2	
2	
3	
1	
5	
3	
3	
1	
2	
3	
2	
4	
2	
4	
2	
1	
5	
1	
2	
3	
3	
3	
3	
4	
3	
4	
2	
2	
3	
1	
4	
2	
4	
4	
4	
2	
3	
6	
5	
5	
4	
3	
1	
2	
4	
1	
1	
3	
2	
1	
5	
3	
3	
4	
3	
3	
7	
1	
3	
3	
1	
1	
3	
4	
2	
4	
2	
2	
4	
3	
2	
3	
1	
6	
1	
3	
4	
2	
0	
6	
2	
3	
6	
5	
3	
4	
4	
4	
3	
3	
5	
3	
4	
1	
3	
8	
2	
3	
6	
4	
2	
2	
3	
8	
2	
5	
3	
3	
2	
6	
1	
6	
2	
3	
6	
5	
3	
2	
2	
2	
1	
4	
5	
3	
5	
5	
3	
6	
3	
0	
4	
2	
2	
2	
1	
5	
1	
2	
3	
3	
1	
3	
3	
2	
2	
4	
6	
1	
0	
5	
5	
3	
2	
0	
1	
2	
3	
3	
3	
3	
3	
1	
4	
2	
0	
4	
2	
2	
2	
6	
2	
4	
2	
4	
2	
3	
4	
2	
4	
4	
2	
1	
3	
4	
5	
2	
5	
2	
3	
4	
5	
4	
2	
0	
2	
3	
4	
2	
1	
2	
2	
3	
3	
4	
2	
1	
6	
2	
3	
8	
1	
3	
6	
0	
3	
1	
4	
1	
1	
2	
1	
6	
2	
5	
1	
3	
5	
2	
4	
2	
3	
4	
5	
2	
2	
2	
4	
2	
2	
0	
1	
4	
5	
5	
1	
3	
3	
1	
1	
6	
6	
7	
2	
3	
1	
0	
3	
1	
8	
3	
5	
4	
0	
3	
5	
1	
4	
3	
2	
2	
2	
3	
4	
4	
5	
3	
3	
5	
5	
3	
2	
5	
1	
3	
3	
1	
5	
2	
5	
1	
3	
2	
2	
3	
2	
1	
10	
4	
3	
2	
4	
5	
1	
1	
3	
4	
4	
1	
3	
2	
2	
3	
2	
3	
1	
3	
4	
1	
2	
1	
7	
3	
5	
6	
2	
4	
4	
7	
1	
1	
3	
4	
5	
3	
2	
6	
4	
6	
2	
3	
9	
5	
4	
3	
4	
5	
2	
3	
1	
1	
4	
4	
4	
4	
6	
5	
3	
1	
2	
2	
3	
2	
0	
0	
3	
6	
0	
2	
3	
3	
4	
4	
5	
3	
2	
2	
4	
3	
2	
2	
3	
6	
5	
3	
2	
4	
4	
1	
1	
5	
2	
4	
2	
2	
3	
2	
1	
5	
3	
1	
1	
3	
3	
5	
4	
3	
4	
3	
3	
4	
2	
4	
6	
3	
4	
4	
4	
5	
1	
7	
3	
4	
3	
3	
2	
2	
2	
2	
2	
2	
1	
2	
2	
9	
2	
1	
2	
4	
3	
1	
1	
1	
2	
4	
4	
6	
3	
3	
4	
5	
3	
0	
5	
1	
0	
3	
2	
3	
3	
5	
7	
2	
4	
1	
4	
2	
0	
5	
0	
4	
3	
5	
4	
1	
6	
0	
2	
6	
3	
2	
1	
1	
6	
5	
2	
2	
4	
6	
4	
3	
1	
4	
2	
2	
4	
2	
3	
2	
5	
7	
0	
5	
1	
1	
4	
3	
2	
2	
2	
3	
1	
2	
2	
1	
1	
2	
4	
3	
1	
3	
3	
1	
3	
2	
0	
4	
4	
5	
4	
3	
4	
2	
3	
5	
0	
2	
2	
6	
1	
2	
3	
2	
2	
2	
0	
2	
1	
2	
2	
3	
3	
0	
7	
0	
6	
5	
1	
1	
1	
8	
1	
3	
0	
1	
0	
3	
4	
2	
2	
5	
4	
6	
3	
1	
0	
2	
4	
2	
4	
2	
5	
2	
5	
4	
3	
1	
2	
1	
2	
4	
1	
0	
5	
4	
5	
2	
2	
4	
5	
7	
2	
6	
1	
0	
3	
1	
1	
5	
1	
6	
4	
2	
1	
5	
5	
1	
4	
5	
5	
2	
4	
2	
5	
2	
2	
6	
2	
4	
2	
2	
2	
3	
1	
5	
2	
4	
0	
3	
5	
1	
3	
1	
2	
3	
2	
2	
2	
0	
2	
4	
3	
0	
3	
2	
5	
3	
3	
0	
4	
1	
7	
0	
2	
4	
5	
0	
2	
4	
3	
0	
4	
3	
3	
1	
1	
4	
5	
4	
5	
1	
1	
1	
3	
3	
7	
3	
2	
4	
1	
3	
0	
2	
1	
3	
3	
2	
5	
5	
4	
3	
1	
2	
1	
4	
1	
0	
7	
1	
2	
6	
3	
2	
1	
1	
5	
0	
2	
2	
5	
4	
3	
4	
3	
1	
2	
2	
2	
3	
4	
4	
3	
3	
4	
2	
2	
4	
1	
4	
5	
3	
3	
1	
1	
3	
3	
7	
3	
0	
1	
7	
4	
6	
3	
2	
3	
2	
1	
7	
0	
1	
4	
3	
3	
4	
5	
2	
3	
3	
4	
5	
3	
4	
6	
5	
5	
5	
1	
2	
1	
6	
1	
2	
4	
0	
2	
4	
3	
0	
2	
1	
2	
5	
1	
0	
1	
1	
3	
1	
3	
4	
7	
2	
2	
1	
4	
3	
6	
0	
4	
4	
2	
1	
2	
2	
4	
1	
3	
3	
3	
4	
8	
0	
2	
3	
1	
4	
5	
3	
1	
1	
2	
3	
3	
4	
2	
2	
5	
3	
3	
0	
1	
2	
3	
9	
2	
5	
2	
5	
1	
4	
1	
2	
2	
4	
2	
4	
1	
2	
5	
4	
2	
1	
0	
3	
3	
3	
3	
4	
4	
1	
1	
6	
0	
4	
3	
3	
1	
4	
4	
6	
3	
2	
2	
1	
4	
2	
3	
0	
3	
2	
2	
3	
2	
3	
2	
2	
4	
3	
0	
3	
6	
2	
1	
3	
4	
3	
6	
4	
7	
4	
2	
3	
3	
7	
3	
5	
3	
2	
1	
5	
2	
5	
0	
5	
3	
1	
3	
5	
2	
4	
4	
3	
3	
3	
5	
2	
4	
2	
4	
0	
0	
0	
2	
2	
3	
0	
1	
2	
5	
0	
2	
5	
2	
3	
1	
0	
4	
1	
2	
3	
4	
5	
3	
1	
1	
0	
3	
2	
3	
5	
3	
6	
1	
2	
5	
3	
0	
6	
9	
3	
3	
3	
4	
0	
2	
5	
5	
4	
2	
5	
1	
3	
0	
4	
3	
3	
2	
2	
4	
4	
1	
1	
3	
4	
1	
5	
4	
3	
2	
4	
3	
5	
1	
3	
2	
4	
8	
1	
3	
2	
2	
2	
2	
2	
2	
2	
2	
3	
3	
3	
4	
3	
3	
2	
4	
0	
0	
6	
2	
0	
1	
4	
4	
1	
0	
3	
2	
5	
0	
3	
2	
1	
3	
2	
1	
3	
2	
4	
1	
1	
1	
1	
4	
1	
2	
1	
4	
1	
8	
3	
2	
2	
0	
1	
1	
2	
4	
5	
2	
1	
4	
4	
1	
1	
3	
1	
3	
2	
3	
2	
2	
4	
6	
4	
3	
2	
6	
2	
4	
3	
3	
5	
0	
3	
2	
5	
5	
1	
2	
1	
2	
3	
3	
3	
2	
1	
4	
1	
2	
7	
0	
5	
4	
1	
5	
0	
5	
4	
0	
4	
3	
1	
3	
0	
3	
6	
3	
3	
4	
4	
4	
4	
7	
1	
2	
2	
1	
3	
4	
3	
1	
2	
1	
1	
3	
3	
2	
3	
1	
3	
2	
1	
1	
3	
4	
1	
4	
2	
2	
4	
4	
0	
3	
3	
3	
2	
5	
2	
1	
3	
0	
4	
0	
6	
3	
4	
3	
1	
5	
4	
4	
0	
1	
4	
5	
6	
3	
3	
1	
4	
3	
2	
5	
2	
1	
3	
5	
3	
4	
2	
5	
1	
2	
3	
5	
1	
3	
2	
3	
2	
6	
1	
5	
3	
2	
3	
4	
4	
2	
2	
1	
2	
3	
5	
3	
3	
3	
1	
6	
1	
2	
2	
2	
2	
2	
0	
5	
6	
4	
4	
2	
4	
3	
3	
3	
1	
3	
4	
3	
2	
3	
3	
2	
2	
1	
2	
2	
2	
1	
3	
2	
3	
2	
1	
5	
0	
2	
5	
1	
1	
3	
1	
4	
6	
6	
4	
4	
3	
3	
7	
2	
5	
2	
3	
1	
7	
1	
6	
5	
2	
2	
2	
2	
4	
3	
4	
3	
5	
2	
1	
0	
0	
3	
1	
2	
4	
3	
2	
4	
3	
2	
2	
2	
6	
7	
0	
4	
3	
3	
2	
2	
2	
4	
2	
3	
4	
4	
3	
1	
7	
5	
4	
2	
0	
2	
2	
2	
5	
4	
2	
1	
5	
0	
2	
2	
1	
1	
4	
3	
1	
1	
2	
2	
2	
2	
2	
1	
3	
3	
3	
3	
2	
2	
2	
3	
1	
3	
1	
2	
3	
6	
2	
3	
3	
1	
2	
4	
7	
2	
5	
2	
2	
0	
2	
4	
4	
0	
2	
2	
2	
1	
0	
5	
3	
3	
1	
0	
1	
2	
1	
2	
1	
0	
3	
1	
7	
4	
0	
1	
6	
4	
3	
1	
2	
5	
1	
3	
2	
1	
2	
3	
5	
5	
4	
1	
3	
2	
0	
2	
1	
5	
3	
1	
2	
1	
4	
3	
2	
2	
1	
4	
4	
3	
3	
2	
3	
2	
2	
1	
1	
2	
2	
3	
4	
3	
2	
1	
3	
3	
4	
4	
2	
2	
4	
2	
3	
4	
2	
1	
1	
2	
5	
1	
3	
2	
4	
1	
1	
5	
4	
5	
4	
2	
3	
4	
0	
2	
4	
6	
2	
3	
3	
1	
2	
1	
5	
2	
2	
1	
3	
2	
3	
2	
3	
1	
5	
2	
3	
5	
1	
2	
2	
1	
3	
0	
3	
1	
0	
2	
4	
4	
5	
4	
4	
10	
0	
1	
0	
3	
4	
2	
0	
1	
2	
3	
2	
6	
0	
1	
0	
2	
0	
2	
2	
4	
1	
1	
2	
3	
2	
3	
2	
2	
2	
1	
2	
0	
3	
2	
2	
4	
0	
4	
1	
1	
1	
3	
3	
3	
2	
2	
3	
3	
3	
3	
4	
3	
2	
1	
0	
0	
2	
5	
3	
6	
2	
1	
0	
3	
5	
0	
1	
8	
5	
3	
3	
1	
0	
4	
4	
3	
2	
1	
7	
3	
2	
3	
3	
3	
3	
2	
3	
3	
2	
5	
2	
2	
4	
1	
7	
3	
1	
3	
0	
2	
0	
3	
0	
4	
3	
2	
3	
3	
1	
3	
2	
4	
1	
4	
0	
0	
2	
2	
1	
3	
3	
2	
6	
4	
3	
4	
2	
2	
0	
2	
2	
4	
1	
4	
0	
2	
4	
2	
6	
4	
2	
4	
2	
7	
3	
2	
3	
2	
3	
1	
0	
0	
8	
2	
0	
1	
2	
0	
2	
3	
2	
2	
4	
2	
2	
3	
3	
5	
5	
2	
4	
1	
4	
4	
1	
4	
2	
2	
2	
2	
2	
4	
2	
0	
1	
2	
3	
2	
3	
2	
5	
5	
2	
5	
6	
0	
2	
2	
1	
7	
4	
2	
1	
3	
3	
3	
5	
2	
5	
3	
0	
3	
2	
0	
5	
4	
5	
5	
2	
3	
3	
0	
2	
1	
1	
5	
4	
5	
3	
3	
2	
1	
1	
2	
2	
6	
6	
5	
4	
4	
5	
1	
2	
4	
4	
3	
2	
3	
2	
0	
3	
1	
4	
1	
2	
4	
3	
2	
3	
1	
3	
2	
2	
3	
1	
5	
2	
1	
4	
2	
1	
5	
4	
0	
4	
0	
2	
0	
4	
2	
2	
4	
0	
2	
2	
3	
3	
3	
5	
1	
3	
4	
2	
5	
4	
1	
1	
3	
4	
0	
3	
3	
1	
3	
2	
3	
0	
1	
2	
2	
4	
3	
4	
4	
3	
4	
5	
1	
2	
3	
3	
1	
5	
2	
4	
3	
1	
3	
3	
4	
0	
0	
2	
3	
0	
3	
3	
1	
2	
1	
3	
2	
1	
4	
3	
1	
1	
5	
1	
4	
2	
4	
4	
2	
3	
3	
2	
2	
6	
3	
2	
4	
2	
2	
1	
1	
3	
3	
4	
1	
4	
1	
1	
2	
2	
1	
4	
3	
2	
9	
3	
1	
4	
6	
1	
3	
5	
4	
2	
0	
3	
5	
2	
5	
2	
2	
2	
5	
3	
3	
0	
7	
3	
3	
2	
5	
4	
2	
2	
3	
1	
2	
1	
2	
2	
3	
1	
4	
2	
0	
3	
1	
1	
2	
2	
4	
2	
3	
1	
4	
0	
3	
2	
3	
3	
2	
3	
2	
5	
5	
5	
2	
2	
2	
4	
4	
2	
3	
4	
5	
3	
0	
1	
1	
3	
1	
1	
3	
3	
3	
4	
4	
2	
2	
1	
1	
4	
1	
1	
6	
2	
5	
1	
2	
1	
5	
4	
1	
1	
4	
6	
3	
4	
2	
2	
1	
3	
1	
3	
1	
2	
2	
2	
4	
0	
1	
5	
2	
4	
0	
4	
0	
2	
3	
4	
1	
2	
3	
6	
3	
3	
3	
5	
3	
2	
3	
2	
3	
6	
5	
2	
2	
2	
6	
1	
5	
1	
1	
3	
5	
2	
3	
5	
1	
3	
5	
1	
3	
0	
5	
0	
3	
1	
3	
3	
2	
0	
3	
4	
1	
2	
4	
2	
2	
3	
3	
5	
0	
2	
5	
1	
2	
3	
1	
0	
4	
5	
3	
3	
2	
2	
4	
1	
6	
2	
3	
4	
1	
2	
2	
3	
3	
1	
3	
1	
3	
3	
4	
2	
3	
3	
3	
1	
1	
3	
1	
5	
2	
2	
1	
1	
4	
2	
3	
4	
2	
2	
1	
3	
1	
6	
3	
3	
7	
4	
0	
5	
2	
5	
3	
3	
3	
3	
3	
2	
2	
2	
2	
5	
3	
5	
4	
1	
3	
1	
1	
1	
3	
0	
4	
6	
2	
2	
6	
4	
2	
5	
8	
0	
3	
3	
4	
1	
1	
4	
3	
4	
3	
2	
2	
3	
3	
2	
2	
5	
0	
2	
3	
2	
2	
1	
3	
2	
4	
5	
4	
6	
3	
0	
2	
5	
3	
3	
7	
4	
4	
1	
5	
1	
2	
3	
2	
4	
2	
5	
1	
5	
1	
4	
3	
3	
4	
1	
3	
1	
3	
1	
4	
5	
2	
8	
5	
3	
3	
1	
6	
3	
1	
1	
5	
4	
3	
3	
4	
3	
5	
1	
3	
2	
2	
7	
2	
2	
5	
7	
3	
3	
6	
5	
2	
2	
4	
2	
2	
3	
3	
4	
7	
0	
2	
3	
4	
3	
2	
3	
4	
3	
1	
0	
3	
5	
1	
3	
6	
2	
4	
5	
3	
5	
3	
1	
3	
2	
3	
1	
2	
1	
4	
2	
4	
2	
3	
3	
1	
1	
2	
2	
5	
4	
3	
1	
3	
5	
2	
2	
5	
7	
8	
0	
3	
4	
3	
2	
2	
2	
2	
3	
5	
2	
0	
1	
3	
2	
0	
0	
0	
2	
2	
3	
1	
3	
4	
0	
4	
2	
2	
1	
4	
2	
3	
2	
4	
5	
5	
2	
2	
0	
3	
2	
2	
0	
2	
2	
5	
2	
3	
3	
5	
2	
0	
4	
2	
5	
3	
2	
1	
4	
6	
2	
1	
2	
2	
0	
2	
4	
1	
4	
5	
3	
1	
4	
3	
4	
2	
2	
2	
3	
0	
0	
0	
5	
8	
3	
3	
2	
6	
1	
3	
2	
3	
6	
4	
2	
5	
5	
4	
4	
2	
4	
2	
2	
1	
1	
2	
2	
1	
3	
2	
1	
0	
1	
2	
3	
3	
2	
2	
1	
3	
3	
0	
2	
0	
4	
3	
3	
1	
3	
6	
1	
2	
1	
3	
1	
2	
2	
1	
5	
2	
4	
3	
2	
4	
2	
1	
5	
1	
1	
4	
3	
4	
0	
3	
2	
1	
2	
2	
1	
5	
5	
3	
1	
2	
5	
3	
3	
1	
1	
4	
6	
2	
4	
2	
3	
5	
3	
1	
0	
5	
2	
3	
1	
3	
1	
2	
1	
1	
7	
3	
3	
2	
2	
5	
3	
2	
1	
0	
2	
1	
0	
2	
3	
1	
1	
8	
4	
3	
3	
3	
3	
1	
0	
2	
1	
3	
3	
5	
2	
5	
5	
3	
2	
4	
2	
3	
5	
1	
3	
2	
2	
2	
1	
0	
6	
2	
2	
2	
2	
3	
3	
2	
2	
1	
4	
0	
2	
0	
3	
4	
3	
2	
2	
0	
5	
1	
2	
2	
3	
3	
2	
4	
4	
4	
2	
4	
2	
1	
5	
4	
4	
1	
4	
0	
3	
4	
1	
4	
3	
1	
2	
7	
0	
2	
0	
2	
2	
2	
0	
3	
3	
2	
1	
3	
4	
1	
1	
4	
4	
1	
3	
0	
3	
3	
2	
2	
1	
3	
4	
5	
5	
5	
1	
3	
2	
2	
0	
5	
2	
1	
1	
1	
4	
3	
1	
3	
5	
1	
0	
3	
5	
3	
2	
2	
2	
3	
2	
3	
1	
1	
1	
3	
5	
3	
2	
0	
2	
1	
2	
3	
1	
3	
0	
3	
3	
0	
2	
1	
2	
3	
1	
1	
1	
1	
0	
3	
5	
1	
2	
2	
4	
4	
2	
3	
3	
1	
1	
6	
3	
2	
4	
0	
3	
1	
3	
2	
2	
4	
1	
3	
4	
3	
5	
1	
3	
2	
3	
0	
2	
2	
4	
3	
1	
2	
2	
3	
1	
2	
2	
3	
2	
4	
1	
3	
1	
2	
0	
2	
1	
1	
3	
3	
3	
2	
1	
2	
4	
3	
3	
4	
4	
2	
2	
2	
3	
7	
3	
3	
4	
6	
2	
1	
0	
5	
2	
7	
1	
1	
5	
3	
0	
4	
3	
1	
0	
3	
2	
1	
5	
3	
4	
2	
1	
3	
5	
7	
1	
4	
2	
0	
8	
4	
1	
3	
3	
2	
0	
1	
2	
1	
3	
4	
3	
3	
1	
1	
5	
4	
5	
3	
0	
5	
4	
1	
4	
2	
2	
1	
1	
3	
1	
4	
3	
5	
3	
4	
2	
3	
3	
3	
1	
2	
4	
4	
2	
1	
1	
3	
1	
2	
0	
2	
3	
6	
3	
2	
2	
4	
2	
4	
6	
3	
2	
3	
0	
1	
2	
3	
1	
2	
3	
0	
1	
3	
5	
5	
1	
4	
2	
0	
3	
3	
1	
2	
1	
3	
2	
2	
3	
3	
1	
5	
6	
1	
1	
4	
4	
2	
2	
0	
4	
1	
1	
8	
0	
0	
0	
4	
1	
1	
1	
1	
4	
6	
4	
1	
2	
4	
6	
3	
3	
0	
7	
2	
5	
0	
1	
3	
1	
2	
5	
6	
0	
3	
1	
2	
1	
4	
5	
0	
2	
0	
0	
0	
1	
0	
0	
0	
0	
0	
0	
0	
0	
0	
0	
0	
0	
0	
0	
0	
0	
