#PicoHarp 300  Histogram Data			03/13/2023 03:32:17 PM
#channels per curve
3907
#display curve no.
0	
#memory block no.
0	
#ns/channel
0.1280	
#counts
4	
1	
3	
1	
8	
3	
1	
1	
4	
0	
0	
2	
2	
3	
2	
3	
2	
2	
2	
3	
2	
2	
3	
1	
5	
3	
0	
0	
3	
1	
2	
3	
2	
2	
2	
1	
5	
4	
1	
3	
1	
3	
2	
2	
0	
4	
6	
3	
1	
0	
5	
3	
3	
1	
1	
0	
4	
2	
2	
2	
6	
1	
3	
4	
0	
1	
4	
1	
1	
1	
3	
1	
3	
3	
4	
1	
1	
1	
3	
4	
4	
4	
4	
3	
3	
4	
3	
3	
4	
1	
3	
5	
2	
2	
5	
2	
7	
1	
1	
5	
4	
1	
5	
2	
2	
3	
3	
2	
2	
0	
2	
5	
2	
5	
1	
1	
3	
2	
1	
2	
7	
6	
2	
2	
4	
6	
5	
2	
2	
4	
3	
1	
2	
2	
2	
2	
4	
1	
2	
4	
2	
2	
1	
0	
4	
1	
1	
1	
5	
1	
2	
3	
5	
3	
0	
3	
2	
2	
3	
4	
0	
2	
2	
3	
3	
1	
1	
1	
6	
2	
2	
4	
1	
2	
3	
0	
1	
5	
3	
2	
2	
3	
1	
4	
3	
3	
1	
3	
4	
3	
3	
2	
3	
1	
3	
3	
2	
2	
5	
3	
3	
4	
7	
4	
3	
2	
0	
3	
0	
3	
0	
1	
3	
1	
4	
0	
4	
0	
4	
3	
4	
0	
5	
3	
3	
2	
2	
3	
0	
5	
6	
3	
4	
3	
3	
4	
3	
0	
0	
4	
3	
4	
4	
16	
90	
287	
473	
710	
784	
925	
994	
993	
1000	
985	
962	
973	
993	
898	
958	
854	
840	
851	
842	
824	
774	
793	
796	
747	
786	
685	
711	
737	
641	
643	
621	
662	
650	
596	
626	
608	
624	
579	
537	
598	
533	
545	
514	
516	
541	
498	
459	
490	
469	
474	
477	
448	
438	
432	
487	
397	
378	
403	
418	
386	
419	
371	
381	
385	
365	
329	
339	
338	
349	
323	
343	
306	
335	
323	
325	
287	
329	
273	
308	
269	
302	
279	
286	
253	
289	
271	
254	
255	
269	
260	
248	
241	
220	
246	
221	
248	
240	
248	
221	
206	
210	
211	
202	
191	
213	
192	
183	
200	
202	
160	
200	
170	
170	
160	
192	
173	
152	
182	
175	
190	
185	
189	
172	
180	
152	
171	
154	
149	
148	
143	
143	
151	
152	
163	
150	
132	
136	
126	
135	
124	
121	
136	
139	
133	
131	
129	
120	
128	
137	
135	
117	
112	
101	
113	
97	
120	
101	
112	
105	
130	
107	
100	
102	
90	
96	
101	
98	
97	
106	
104	
93	
96	
75	
75	
98	
109	
104	
124	
107	
82	
83	
68	
90	
85	
98	
93	
66	
88	
73	
75	
73	
82	
84	
72	
86	
77	
80	
74	
85	
79	
73	
71	
64	
67	
56	
80	
63	
58	
82	
69	
55	
59	
78	
62	
51	
59	
65	
64	
54	
55	
69	
51	
73	
61	
57	
58	
53	
65	
58	
55	
46	
47	
49	
62	
53	
46	
54	
52	
55	
39	
43	
46	
48	
44	
41	
47	
44	
47	
51	
45	
42	
40	
52	
39	
51	
45	
35	
48	
49	
34	
42	
34	
39	
42	
36	
39	
42	
42	
35	
42	
42	
44	
46	
38	
38	
50	
38	
36	
33	
41	
43	
45	
22	
40	
43	
32	
38	
33	
36	
33	
28	
33	
35	
45	
29	
18	
41	
40	
29	
30	
35	
38	
26	
34	
34	
29	
22	
45	
24	
33	
33	
32	
33	
38	
31	
20	
34	
35	
24	
27	
33	
32	
29	
30	
35	
37	
30	
35	
23	
24	
28	
28	
28	
29	
27	
21	
22	
33	
25	
22	
22	
31	
25	
32	
26	
21	
26	
30	
24	
19	
17	
24	
24	
32	
19	
20	
21	
26	
14	
27	
17	
26	
20	
22	
23	
27	
17	
26	
22	
18	
23	
23	
17	
15	
28	
16	
12	
16	
22	
18	
18	
21	
12	
15	
14	
27	
16	
18	
14	
17	
16	
13	
13	
14	
15	
19	
18	
11	
16	
27	
20	
19	
18	
24	
19	
21	
20	
19	
20	
19	
15	
16	
18	
15	
21	
16	
18	
13	
19	
11	
26	
16	
16	
23	
13	
14	
10	
13	
17	
18	
16	
11	
17	
20	
19	
10	
10	
13	
16	
22	
23	
15	
17	
16	
14	
15	
14	
16	
17	
12	
18	
13	
14	
15	
7	
14	
16	
18	
17	
16	
18	
11	
18	
10	
9	
15	
8	
12	
13	
16	
11	
14	
19	
19	
13	
11	
12	
13	
12	
15	
8	
16	
18	
12	
16	
6	
7	
10	
12	
15	
11	
13	
6	
8	
15	
21	
9	
13	
7	
11	
17	
6	
11	
11	
19	
10	
9	
8	
13	
6	
12	
13	
11	
8	
11	
13	
11	
5	
12	
8	
12	
13	
13	
10	
13	
13	
10	
10	
17	
7	
6	
9	
8	
7	
8	
14	
12	
13	
14	
8	
10	
7	
10	
22	
12	
11	
9	
13	
16	
7	
9	
9	
6	
7	
3	
13	
5	
13	
4	
11	
11	
5	
9	
7	
13	
11	
8	
10	
7	
12	
6	
12	
2	
8	
7	
16	
7	
5	
5	
11	
5	
7	
7	
8	
6	
12	
7	
11	
7	
5	
10	
7	
10	
11	
10	
8	
6	
13	
5	
11	
8	
5	
9	
12	
5	
2	
16	
2	
8	
10	
5	
8	
5	
7	
5	
11	
8	
12	
5	
11	
5	
6	
13	
12	
5	
4	
7	
7	
9	
13	
8	
6	
9	
10	
9	
7	
6	
1	
3	
4	
7	
6	
7	
5	
6	
7	
7	
4	
7	
2	
1	
6	
9	
12	
6	
10	
6	
6	
7	
8	
9	
9	
5	
6	
3	
5	
6	
12	
7	
9	
5	
3	
6	
6	
8	
9	
9	
10	
4	
7	
10	
10	
5	
6	
7	
9	
1	
6	
2	
6	
5	
9	
4	
6	
8	
11	
1	
5	
3	
8	
8	
7	
7	
9	
7	
3	
1	
5	
7	
4	
9	
6	
5	
4	
10	
4	
9	
9	
5	
6	
6	
8	
7	
6	
6	
8	
5	
2	
6	
9	
9	
10	
5	
9	
6	
3	
8	
4	
6	
1	
11	
5	
8	
11	
6	
6	
5	
5	
5	
4	
7	
6	
4	
8	
10	
7	
9	
7	
9	
4	
7	
5	
4	
3	
8	
7	
7	
7	
8	
7	
3	
5	
9	
9	
9	
4	
2	
4	
9	
8	
4	
6	
5	
7	
2	
10	
7	
4	
7	
5	
9	
5	
2	
10	
5	
1	
3	
10	
3	
6	
7	
3	
6	
7	
8	
4	
3	
5	
5	
8	
3	
3	
6	
6	
8	
3	
2	
7	
3	
5	
4	
4	
4	
4	
2	
6	
5	
9	
2	
2	
2	
5	
9	
8	
5	
4	
4	
7	
8	
4	
8	
7	
7	
1	
10	
9	
4	
3	
5	
7	
4	
7	
2	
3	
5	
7	
7	
8	
5	
3	
6	
10	
3	
3	
5	
7	
8	
3	
3	
4	
4	
2	
4	
4	
4	
9	
2	
6	
4	
9	
7	
5	
3	
8	
4	
5	
5	
5	
3	
6	
4	
6	
6	
6	
5	
4	
3	
6	
8	
4	
10	
6	
6	
7	
6	
0	
3	
5	
11	
5	
9	
2	
5	
7	
6	
10	
5	
5	
8	
4	
5	
5	
2	
10	
2	
6	
3	
5	
2	
3	
5	
6	
5	
1	
3	
8	
1	
3	
4	
6	
5	
6	
4	
5	
6	
4	
2	
3	
4	
7	
5	
7	
0	
4	
3	
4	
5	
9	
5	
4	
5	
3	
7	
6	
3	
2	
5	
5	
8	
5	
4	
7	
2	
4	
4	
4	
9	
3	
6	
4	
6	
5	
3	
5	
2	
3	
5	
6	
0	
8	
6	
2	
3	
2	
6	
8	
5	
1	
6	
10	
6	
6	
6	
2	
4	
5	
3	
12	
6	
7	
7	
2	
4	
6	
2	
3	
3	
5	
2	
4	
4	
4	
6	
1	
10	
6	
7	
1	
2	
6	
0	
3	
3	
3	
5	
4	
4	
4	
5	
2	
5	
1	
6	
3	
5	
3	
4	
4	
7	
4	
5	
1	
3	
2	
5	
4	
5	
5	
2	
4	
4	
3	
4	
9	
4	
5	
3	
11	
4	
2	
3	
3	
4	
8	
1	
6	
4	
2	
6	
4	
4	
3	
5	
4	
3	
6	
9	
2	
4	
4	
3	
4	
4	
2	
3	
3	
4	
3	
10	
2	
6	
3	
7	
6	
5	
3	
6	
2	
1	
0	
6	
6	
3	
4	
4	
4	
3	
3	
4	
3	
2	
6	
5	
4	
5	
2	
6	
4	
3	
4	
1	
3	
5	
1	
5	
0	
2	
5	
4	
6	
4	
1	
7	
2	
1	
1	
3	
1	
3	
2	
6	
2	
4	
6	
7	
3	
7	
3	
4	
3	
1	
8	
7	
6	
5	
1	
4	
7	
3	
2	
4	
5	
2	
4	
3	
9	
1	
4	
5	
5	
2	
2	
3	
4	
0	
1	
1	
6	
6	
3	
6	
2	
7	
3	
4	
1	
2	
2	
2	
0	
4	
6	
3	
2	
3	
3	
3	
4	
4	
6	
4	
5	
5	
1	
1	
3	
2	
5	
5	
4	
2	
3	
4	
4	
10	
6	
8	
7	
3	
4	
4	
7	
4	
5	
3	
5	
1	
7	
1	
2	
2	
5	
4	
5	
6	
3	
5	
5	
5	
4	
5	
5	
5	
2	
2	
6	
7	
4	
5	
4	
4	
6	
5	
5	
4	
0	
5	
8	
2	
5	
3	
11	
2	
7	
4	
3	
3	
3	
2	
3	
6	
5	
2	
3	
7	
2	
2	
5	
3	
1	
4	
3	
0	
3	
4	
2	
3	
5	
4	
6	
4	
4	
1	
4	
3	
5	
2	
4	
5	
7	
2	
1	
4	
3	
3	
2	
1	
3	
3	
2	
1	
5	
3	
5	
1	
2	
5	
6	
4	
2	
3	
1	
2	
4	
2	
4	
1	
1	
3	
4	
2	
4	
1	
6	
5	
5	
3	
6	
2	
5	
3	
5	
3	
6	
2	
4	
2	
4	
4	
2	
6	
2	
9	
6	
6	
4	
3	
4	
5	
1	
3	
4	
0	
6	
2	
2	
2	
2	
3	
2	
6	
4	
3	
4	
0	
2	
4	
3	
3	
2	
5	
2	
3	
1	
4	
2	
1	
5	
0	
4	
4	
5	
7	
1	
1	
2	
1	
3	
2	
5	
1	
5	
3	
3	
1	
1	
9	
4	
6	
7	
1	
5	
2	
1	
4	
3	
3	
6	
3	
4	
3	
1	
5	
4	
2	
2	
5	
2	
5	
4	
8	
5	
0	
5	
2	
4	
2	
4	
2	
3	
4	
6	
3	
1	
1	
3	
4	
2	
4	
3	
1	
9	
3	
6	
3	
4	
2	
1	
4	
4	
1	
5	
8	
2	
3	
2	
4	
2	
2	
1	
5	
4	
4	
3	
3	
6	
2	
1	
2	
4	
8	
4	
6	
2	
4	
1	
3	
3	
7	
3	
3	
5	
3	
6	
2	
3	
1	
5	
2	
7	
3	
6	
5	
4	
4	
5	
2	
2	
1	
2	
0	
0	
0	
5	
4	
2	
2	
7	
3	
1	
2	
2	
7	
5	
2	
4	
6	
4	
4	
2	
6	
2	
5	
6	
4	
4	
3	
2	
3	
2	
4	
1	
2	
4	
4	
2	
4	
3	
1	
2	
5	
0	
6	
2	
8	
1	
4	
5	
6	
8	
6	
3	
3	
4	
6	
4	
2	
4	
4	
2	
1	
2	
5	
4	
3	
1	
2	
4	
3	
1	
0	
0	
4	
6	
3	
2	
3	
1	
2	
3	
2	
3	
2	
3	
5	
6	
3	
2	
3	
3	
4	
4	
1	
3	
3	
5	
1	
3	
2	
4	
2	
3	
4	
1	
4	
2	
4	
4	
2	
0	
1	
4	
4	
3	
5	
2	
3	
7	
3	
4	
4	
4	
2	
5	
2	
4	
1	
3	
5	
1	
5	
3	
2	
0	
3	
3	
2	
0	
1	
5	
5	
4	
1	
2	
3	
5	
4	
4	
5	
1	
2	
3	
4	
5	
7	
12	
1	
4	
2	
6	
4	
6	
4	
4	
4	
2	
4	
0	
4	
5	
3	
2	
5	
3	
3	
3	
5	
1	
0	
3	
2	
4	
3	
2	
1	
1	
4	
0	
4	
6	
1	
2	
2	
4	
2	
3	
4	
3	
1	
4	
4	
5	
5	
7	
2	
3	
6	
3	
3	
4	
2	
2	
5	
2	
3	
8	
3	
1	
3	
3	
6	
6	
1	
2	
3	
4	
4	
4	
3	
1	
1	
3	
3	
6	
6	
1	
1	
3	
1	
1	
5	
2	
3	
4	
2	
1	
2	
6	
2	
0	
2	
2	
3	
3	
3	
5	
3	
1	
2	
6	
6	
2	
1	
5	
5	
3	
5	
3	
3	
2	
3	
3	
5	
2	
2	
2	
3	
1	
2	
6	
2	
6	
3	
4	
5	
5	
2	
1	
5	
3	
4	
5	
0	
2	
1	
2	
8	
2	
5	
1	
0	
4	
5	
3	
3	
4	
1	
2	
4	
4	
2	
2	
3	
7	
4	
5	
2	
2	
3	
3	
4	
3	
2	
2	
2	
2	
5	
2	
1	
3	
2	
3	
2	
3	
3	
2	
5	
3	
3	
3	
6	
1	
1	
5	
2	
2	
2	
5	
0	
2	
3	
1	
3	
4	
1	
5	
1	
0	
3	
3	
2	
3	
1	
3	
1	
0	
2	
2	
2	
3	
2	
1	
2	
5	
4	
2	
3	
2	
4	
0	
3	
4	
2	
1	
1	
5	
4	
1	
10	
7	
3	
3	
6	
5	
0	
2	
4	
2	
1	
2	
1	
0	
1	
3	
2	
4	
6	
5	
3	
6	
0	
3	
1	
4	
6	
2	
4	
2	
2	
5	
4	
4	
3	
3	
0	
4	
2	
3	
4	
2	
1	
2	
2	
0	
4	
6	
4	
2	
5	
7	
2	
4	
3	
2	
4	
3	
4	
2	
5	
5	
2	
5	
6	
3	
2	
8	
2	
2	
7	
6	
3	
3	
4	
5	
1	
3	
5	
3	
3	
3	
5	
2	
5	
2	
1	
3	
4	
4	
2	
3	
7	
4	
5	
4	
6	
5	
4	
4	
4	
1	
6	
2	
2	
3	
4	
9	
2	
3	
1	
1	
4	
4	
4	
5	
1	
3	
3	
1	
2	
6	
1	
2	
4	
4	
1	
2	
3	
3	
5	
2	
3	
4	
3	
3	
3	
5	
4	
4	
4	
3	
3	
5	
9	
4	
4	
3	
4	
4	
3	
1	
2	
1	
2	
4	
3	
2	
4	
5	
4	
6	
3	
2	
0	
5	
2	
5	
2	
1	
2	
2	
0	
6	
1	
1	
2	
2	
2	
2	
2	
2	
1	
6	
1	
2	
1	
4	
1	
5	
1	
3	
1	
6	
4	
4	
1	
2	
5	
0	
2	
2	
1	
7	
3	
3	
3	
1	
2	
5	
1	
1	
5	
3	
2	
5	
5	
1	
4	
3	
3	
2	
3	
2	
4	
2	
1	
3	
1	
4	
7	
3	
2	
4	
3	
3	
4	
3	
4	
6	
3	
2	
3	
2	
4	
3	
2	
4	
2	
3	
2	
0	
2	
1	
3	
2	
5	
8	
3	
0	
2	
4	
3	
1	
3	
1	
5	
3	
6	
3	
1	
2	
4	
5	
6	
3	
0	
11	
6	
2	
4	
3	
1	
3	
5	
0	
0	
2	
1	
5	
4	
2	
3	
3	
3	
2	
7	
1	
5	
1	
4	
4	
3	
5	
3	
0	
2	
2	
3	
1	
4	
2	
2	
3	
3	
4	
2	
3	
1	
4	
0	
2	
6	
0	
2	
3	
4	
2	
2	
2	
5	
4	
2	
5	
4	
2	
3	
2	
3	
1	
2	
4	
1	
2	
5	
5	
5	
0	
1	
2	
1	
3	
6	
2	
3	
3	
4	
2	
0	
4	
0	
7	
1	
5	
3	
2	
4	
3	
1	
3	
5	
5	
4	
4	
2	
4	
3	
5	
2	
1	
1	
1	
5	
2	
3	
2	
2	
2	
1	
1	
3	
1	
4	
2	
4	
1	
0	
1	
4	
2	
2	
0	
6	
2	
2	
1	
2	
3	
3	
2	
0	
4	
2	
2	
2	
3	
6	
2	
3	
2	
4	
4	
2	
3	
3	
1	
4	
6	
0	
0	
2	
1	
1	
1	
1	
2	
5	
2	
2	
3	
5	
2	
0	
7	
1	
3	
1	
3	
5	
4	
4	
1	
5	
1	
1	
2	
5	
2	
1	
1	
1	
2	
2	
3	
3	
5	
4	
5	
5	
3	
2	
2	
3	
3	
3	
1	
3	
0	
2	
1	
3	
3	
4	
2	
2	
1	
0	
2	
5	
5	
7	
2	
4	
2	
1	
7	
4	
0	
3	
2	
3	
6	
4	
2	
1	
1	
2	
0	
1	
4	
3	
6	
2	
1	
3	
2	
1	
1	
4	
4	
3	
1	
2	
1	
1	
4	
0	
4	
2	
4	
2	
1	
3	
1	
1	
0	
1	
2	
5	
6	
2	
4	
2	
6	
4	
2	
3	
5	
2	
5	
3	
3	
7	
2	
1	
2	
2	
3	
1	
2	
1	
2	
4	
5	
4	
1	
3	
1	
3	
4	
8	
2	
1	
5	
2	
1	
4	
3	
2	
2	
5	
2	
1	
2	
1	
3	
4	
6	
2	
3	
4	
3	
3	
5	
2	
4	
3	
3	
2	
3	
1	
3	
3	
5	
3	
6	
5	
4	
4	
1	
1	
1	
2	
2	
0	
4	
4	
4	
4	
1	
1	
2	
1	
3	
2	
0	
2	
4	
4	
2	
3	
3	
5	
1	
0	
3	
1	
1	
3	
5	
3	
3	
5	
3	
1	
3	
2	
6	
2	
3	
3	
1	
3	
1	
4	
4	
2	
4	
1	
1	
2	
2	
3	
1	
5	
1	
1	
1	
3	
1	
2	
3	
2	
3	
4	
5	
2	
2	
8	
3	
4	
1	
1	
3	
1	
5	
3	
4	
2	
5	
3	
2	
6	
2	
4	
3	
5	
2	
0	
0	
0	
7	
4	
3	
2	
5	
2	
3	
2	
1	
1	
1	
2	
2	
2	
3	
0	
0	
3	
2	
6	
2	
1	
2	
3	
6	
2	
4	
2	
1	
2	
0	
6	
8	
2	
1	
3	
3	
0	
4	
3	
1	
5	
2	
2	
0	
3	
3	
3	
2	
0	
2	
3	
6	
2	
3	
6	
1	
2	
2	
5	
2	
4	
2	
4	
3	
1	
0	
1	
2	
3	
3	
3	
4	
1	
4	
0	
3	
1	
4	
2	
1	
3	
6	
4	
6	
4	
3	
2	
3	
3	
1	
6	
0	
7	
3	
0	
2	
1	
2	
0	
3	
3	
2	
1	
3	
4	
3	
3	
5	
2	
0	
1	
1	
3	
6	
2	
3	
4	
0	
2	
2	
4	
4	
2	
6	
3	
3	
3	
5	
2	
2	
0	
1	
6	
1	
2	
3	
4	
2	
5	
1	
5	
2	
1	
0	
2	
8	
3	
4	
1	
4	
3	
3	
5	
3	
3	
0	
1	
2	
0	
3	
5	
5	
1	
2	
2	
1	
1	
5	
1	
2	
3	
1	
4	
3	
3	
3	
2	
0	
5	
1	
2	
4	
6	
2	
2	
3	
2	
3	
3	
3	
2	
2	
3	
7	
3	
3	
4	
5	
1	
3	
2	
1	
4	
3	
2	
3	
1	
8	
4	
0	
2	
5	
1	
3	
0	
5	
2	
6	
3	
1	
1	
4	
4	
1	
4	
3	
2	
2	
2	
4	
2	
5	
1	
1	
1	
2	
1	
4	
3	
5	
3	
2	
4	
4	
1	
4	
0	
2	
2	
3	
3	
6	
9	
1	
0	
6	
3	
3	
3	
1	
2	
3	
5	
1	
1	
3	
3	
6	
4	
5	
4	
5	
2	
3	
7	
0	
0	
3	
9	
4	
5	
5	
3	
0	
4	
3	
2	
0	
4	
3	
4	
4	
3	
3	
4	
1	
2	
1	
4	
5	
0	
6	
1	
2	
0	
1	
2	
5	
3	
1	
3	
3	
2	
2	
2	
0	
4	
1	
0	
1	
1	
3	
1	
4	
4	
2	
1	
0	
2	
4	
2	
3	
0	
1	
4	
4	
2	
1	
2	
2	
3	
6	
2	
1	
4	
2	
1	
0	
3	
3	
2	
4	
4	
1	
2	
4	
4	
2	
4	
0	
7	
1	
1	
2	
6	
2	
2	
6	
2	
3	
5	
4	
2	
0	
1	
0	
3	
2	
5	
3	
3	
0	
1	
3	
2	
4	
2	
1	
2	
3	
1	
2	
1	
1	
3	
2	
4	
1	
2	
3	
0	
2	
0	
3	
2	
1	
3	
5	
6	
2	
1	
3	
2	
5	
3	
2	
3	
2	
3	
1	
3	
2	
2	
1	
5	
0	
3	
3	
4	
4	
7	
1	
3	
3	
1	
2	
3	
0	
5	
2	
6	
1	
5	
3	
5	
3	
1	
4	
2	
0	
0	
6	
3	
2	
3	
4	
1	
0	
3	
3	
4	
0	
2	
3	
1	
6	
2	
3	
2	
2	
2	
2	
5	
4	
4	
2	
4	
1	
3	
2	
3	
6	
2	
2	
2	
3	
3	
2	
3	
1	
3	
9	
1	
1	
3	
4	
2	
1	
1	
2	
2	
0	
1	
0	
3	
2	
1	
6	
7	
3	
5	
0	
2	
3	
2	
5	
3	
4	
4	
1	
0	
5	
1	
1	
2	
6	
3	
2	
4	
4	
2	
4	
3	
2	
4	
1	
5	
2	
3	
5	
3	
2	
1	
2	
3	
2	
5	
1	
4	
2	
2	
2	
1	
0	
1	
1	
4	
1	
2	
1	
3	
3	
3	
4	
4	
2	
2	
1	
4	
2	
3	
5	
4	
0	
2	
1	
2	
4	
4	
7	
5	
3	
2	
3	
2	
2	
4	
2	
0	
2	
2	
2	
2	
3	
3	
4	
2	
2	
3	
2	
1	
2	
1	
1	
3	
5	
1	
2	
2	
2	
3	
0	
3	
3	
7	
1	
4	
0	
2	
1	
2	
3	
3	
5	
0	
3	
2	
1	
2	
0	
7	
4	
0	
2	
4	
1	
3	
5	
4	
2	
6	
2	
0	
5	
0	
4	
4	
3	
1	
1	
3	
5	
4	
2	
2	
6	
3	
4	
6	
1	
1	
2	
1	
2	
5	
5	
3	
0	
4	
2	
4	
4	
3	
7	
3	
3	
1	
3	
4	
3	
1	
3	
1	
5	
1	
4	
1	
4	
3	
2	
2	
3	
0	
1	
1	
0	
3	
3	
0	
3	
0	
3	
4	
0	
1	
0	
2	
3	
5	
1	
3	
0	
0	
3	
4	
2	
4	
4	
6	
3	
3	
4	
3	
0	
2	
1	
4	
4	
2	
4	
2	
2	
3	
6	
2	
0	
3	
4	
4	
1	
3	
4	
3	
5	
2	
1	
1	
2	
1	
3	
1	
1	
1	
5	
2	
3	
1	
4	
3	
0	
2	
7	
2	
5	
2	
1	
2	
2	
2	
3	
4	
4	
4	
3	
2	
2	
6	
5	
3	
2	
3	
0	
0	
1	
3	
3	
3	
4	
4	
5	
2	
3	
1	
1	
4	
7	
3	
3	
2	
3	
1	
4	
6	
2	
4	
2	
1	
0	
2	
2	
4	
4	
5	
1	
2	
2	
0	
5	
6	
2	
5	
0	
3	
1	
1	
1	
5	
2	
2	
3	
1	
3	
3	
0	
6	
3	
3	
3	
4	
2	
3	
2	
4	
4	
2	
2	
5	
5	
2	
2	
4	
5	
3	
4	
0	
4	
2	
7	
2	
3	
2	
6	
2	
3	
5	
1	
3	
2	
3	
1	
1	
4	
4	
3	
0	
0	
7	
2	
0	
4	
3	
4	
4	
2	
0	
2	
5	
1	
1	
2	
2	
5	
2	
3	
1	
6	
3	
3	
4	
3	
3	
5	
2	
1	
2	
2	
1	
1	
4	
3	
0	
3	
2	
3	
2	
4	
0	
1	
1	
1	
0	
3	
3	
4	
4	
1	
6	
5	
3	
2	
2	
0	
7	
3	
1	
0	
1	
2	
2	
2	
3	
2	
1	
4	
5	
0	
3	
3	
0	
1	
3	
4	
2	
2	
2	
3	
3	
2	
1	
3	
3	
0	
3	
4	
4	
2	
2	
5	
2	
1	
2	
2	
5	
2	
4	
4	
3	
4	
6	
4	
4	
3	
2	
1	
3	
3	
6	
2	
2	
4	
4	
1	
1	
3	
0	
3	
3	
2	
3	
2	
7	
5	
3	
5	
4	
2	
1	
1	
2	
4	
3	
5	
3	
4	
3	
4	
7	
3	
2	
1	
0	
0	
0	
0	
0	
0	
0	
0	
0	
0	
0	
0	
0	
0	
0	
0	
0	
0	
0	
0	
0	
0	
0	
0	
0	
0	
0	
0	
0	
0	
0	
0	
0	
