#PicoHarp 300  Histogram Data			03/13/2023 03:50:59 PM
#channels per curve
7813
#display curve no.
0	
#memory block no.
0	
#ns/channel
0.1280	
#counts
3	
3	
3	
10	
2	
3	
1	
2	
1	
1	
1	
2	
3	
2	
2	
4	
3	
3	
2	
6	
4	
5	
5	
2	
3	
3	
3	
0	
3	
1	
4	
3	
2	
5	
0	
2	
2	
3	
5	
3	
2	
4	
0	
3	
0	
1	
2	
3	
2	
1	
2	
6	
2	
6	
0	
3	
3	
1	
2	
3	
2	
3	
1	
4	
4	
2	
0	
1	
2	
3	
10	
5	
3	
3	
4	
3	
2	
2	
4	
4	
0	
4	
3	
4	
2	
1	
1	
2	
4	
5	
4	
0	
2	
2	
2	
1	
0	
3	
6	
2	
4	
5	
3	
2	
2	
3	
5	
5	
5	
3	
2	
1	
2	
2	
4	
1	
3	
2	
5	
0	
2	
3	
2	
2	
3	
4	
1	
4	
0	
3	
6	
3	
3	
4	
3	
2	
1	
3	
4	
5	
2	
0	
2	
1	
0	
4	
5	
2	
3	
5	
4	
1	
1	
3	
3	
4	
2	
2	
2	
4	
0	
1	
4	
4	
3	
5	
4	
2	
1	
2	
4	
2	
3	
5	
1	
2	
5	
1	
0	
4	
2	
0	
2	
1	
3	
3	
2	
7	
6	
4	
2	
1	
3	
8	
3	
4	
1	
4	
0	
0	
1	
2	
2	
0	
4	
2	
4	
1	
2	
1	
2	
3	
4	
4	
3	
3	
1	
1	
4	
5	
1	
3	
1	
0	
1	
3	
2	
3	
2	
1	
8	
2	
2	
5	
4	
0	
3	
6	
9	
9	
15	
43	
75	
115	
198	
341	
510	
646	
797	
903	
959	
912	
1000	
915	
924	
952	
877	
945	
941	
891	
923	
915	
876	
902	
823	
802	
862	
827	
807	
786	
791	
756	
813	
832	
742	
731	
732	
710	
734	
709	
713	
722	
705	
723	
716	
727	
671	
675	
656	
669	
711	
698	
673	
666	
663	
602	
630	
605	
653	
560	
581	
618	
617	
574	
617	
574	
582	
588	
578	
560	
621	
567	
571	
554	
538	
508	
523	
504	
491	
526	
504	
508	
527	
489	
541	
507	
449	
492	
471	
503	
448	
456	
467	
455	
488	
428	
502	
440	
483	
492	
476	
418	
434	
434	
426	
433	
443	
429	
443	
406	
417	
407	
366	
407	
442	
412	
390	
381	
376	
347	
394	
397	
385	
381	
378	
373	
384	
397	
336	
374	
361	
364	
352	
358	
387	
353	
341	
373	
320	
303	
306	
341	
330	
336	
323	
300	
310	
292	
317	
334	
331	
327	
320	
325	
340	
304	
257	
334	
322	
331	
327	
316	
288	
290	
279	
314	
276	
302	
291	
250	
271	
303	
264	
268	
263	
264	
252	
264	
303	
278	
293	
267	
235	
278	
283	
256	
283	
243	
266	
248	
250	
274	
236	
261	
249	
236	
233	
218	
242	
230	
270	
237	
239	
228	
262	
238	
235	
219	
208	
251	
240	
248	
210	
211	
220	
213	
211	
214	
226	
199	
226	
191	
218	
201	
239	
195	
179	
222	
217	
212	
206	
210	
196	
220	
208	
204	
190	
213	
198	
189	
196	
182	
195	
233	
181	
209	
218	
182	
208	
176	
190	
193	
198	
184	
208	
192	
175	
186	
176	
182	
158	
157	
191	
187	
182	
193	
137	
156	
146	
159	
181	
181	
174	
169	
149	
158	
167	
156	
158	
168	
150	
168	
160	
145	
169	
150	
174	
176	
148	
169	
161	
148	
142	
152	
148	
147	
170	
155	
164	
138	
141	
146	
126	
152	
151	
128	
147	
164	
140	
123	
144	
157	
144	
123	
135	
120	
146	
146	
151	
139	
128	
140	
136	
133	
128	
123	
142	
139	
125	
116	
94	
135	
110	
126	
124	
120	
144	
122	
118	
137	
124	
103	
126	
126	
117	
116	
115	
117	
128	
105	
100	
127	
127	
120	
121	
125	
115	
130	
119	
121	
129	
115	
115	
124	
118	
103	
125	
121	
118	
112	
95	
110	
106	
117	
105	
112	
97	
111	
100	
87	
107	
111	
90	
84	
101	
94	
95	
108	
102	
106	
99	
116	
104	
93	
94	
88	
93	
111	
110	
127	
87	
118	
79	
92	
99	
89	
106	
81	
96	
90	
102	
90	
98	
80	
89	
107	
92	
80	
99	
91	
82	
79	
98	
95	
106	
87	
86	
83	
90	
87	
82	
94	
79	
91	
87	
84	
79	
85	
84	
91	
79	
93	
81	
94	
90	
68	
85	
99	
72	
78	
82	
89	
72	
76	
85	
82	
87	
86	
77	
69	
87	
88	
83	
84	
90	
67	
69	
78	
70	
85	
79	
79	
78	
78	
60	
75	
68	
70	
77	
67	
71	
81	
83	
78	
85	
74	
71	
80	
69	
65	
64	
84	
80	
75	
88	
78	
66	
69	
68	
73	
68	
61	
55	
58	
67	
59	
52	
69	
67	
68	
88	
56	
68	
79	
67	
62	
78	
65	
70	
52	
68	
69	
53	
70	
67	
65	
69	
64	
67	
72	
58	
59	
80	
76	
58	
62	
61	
47	
61	
56	
65	
55	
57	
61	
57	
70	
58	
53	
45	
61	
64	
52	
50	
56	
53	
66	
52	
53	
67	
53	
56	
66	
80	
44	
53	
66	
54	
67	
58	
66	
61	
53	
62	
61	
59	
44	
43	
56	
47	
58	
52	
57	
48	
56	
57	
66	
51	
49	
56	
61	
44	
49	
51	
42	
47	
50	
49	
54	
52	
47	
50	
45	
43	
54	
43	
65	
53	
54	
41	
50	
50	
60	
33	
52	
44	
41	
47	
36	
51	
42	
37	
54	
61	
39	
38	
40	
47	
51	
50	
54	
46	
49	
37	
46	
42	
40	
44	
45	
43	
51	
54	
43	
61	
46	
43	
47	
42	
36	
51	
46	
39	
45	
40	
37	
42	
43	
41	
45	
51	
43	
46	
30	
39	
48	
38	
45	
37	
43	
39	
47	
51	
42	
55	
45	
29	
41	
37	
44	
37	
44	
47	
44	
32	
25	
39	
50	
35	
43	
41	
35	
39	
31	
35	
42	
27	
36	
20	
47	
29	
28	
46	
38	
29	
36	
36	
40	
33	
26	
38	
48	
40	
36	
36	
35	
31	
42	
46	
37	
39	
39	
40	
36	
41	
39	
38	
24	
27	
32	
29	
39	
34	
40	
30	
21	
40	
42	
34	
40	
39	
46	
37	
38	
39	
32	
41	
27	
32	
39	
40	
27	
48	
40	
34	
33	
38	
44	
32	
32	
42	
24	
33	
32	
29	
41	
30	
33	
33	
29	
42	
34	
29	
27	
30	
36	
42	
29	
26	
24	
19	
24	
33	
34	
32	
33	
40	
34	
40	
23	
37	
30	
44	
25	
27	
39	
37	
38	
28	
40	
35	
31	
35	
25	
26	
37	
27	
21	
20	
27	
33	
23	
34	
30	
23	
18	
26	
30	
28	
26	
37	
26	
26	
36	
32	
23	
30	
36	
24	
31	
22	
23	
32	
26	
31	
23	
33	
31	
16	
15	
28	
27	
33	
22	
31	
24	
30	
24	
29	
22	
25	
27	
22	
27	
27	
27	
33	
33	
29	
23	
22	
31	
33	
24	
28	
29	
27	
22	
28	
35	
22	
32	
27	
29	
28	
23	
29	
22	
34	
29	
24	
25	
25	
23	
27	
26	
28	
14	
32	
24	
29	
20	
21	
20	
20	
22	
21	
25	
23	
18	
33	
27	
21	
33	
21	
22	
28	
12	
25	
30	
30	
20	
21	
13	
21	
22	
34	
21	
22	
25	
25	
23	
21	
21	
28	
28	
28	
26	
23	
20	
19	
21	
14	
23	
22	
26	
24	
15	
22	
25	
23	
21	
10	
18	
28	
32	
25	
13	
23	
17	
20	
17	
29	
20	
18	
26	
21	
23	
19	
20	
14	
19	
28	
24	
20	
14	
22	
28	
27	
26	
17	
22	
19	
26	
24	
27	
18	
25	
19	
18	
17	
15	
27	
22	
23	
18	
25	
21	
15	
21	
18	
17	
16	
19	
20	
21	
25	
18	
27	
22	
18	
24	
20	
20	
23	
19	
19	
21	
28	
20	
17	
20	
12	
18	
25	
17	
19	
18	
19	
12	
18	
16	
20	
21	
23	
16	
20	
17	
25	
21	
19	
15	
14	
19	
18	
20	
32	
23	
17	
12	
16	
25	
22	
21	
24	
14	
24	
16	
14	
22	
13	
12	
19	
20	
18	
14	
13	
14	
14	
16	
17	
17	
16	
16	
13	
19	
21	
14	
17	
15	
18	
12	
17	
22	
23	
21	
16	
12	
14	
19	
21	
17	
12	
23	
7	
16	
16	
13	
11	
17	
19	
24	
20	
19	
22	
16	
19	
17	
22	
13	
11	
15	
13	
14	
18	
18	
23	
19	
24	
11	
17	
17	
11	
19	
20	
17	
16	
20	
12	
20	
16	
12	
21	
18	
16	
20	
15	
15	
10	
17	
15	
21	
26	
15	
20	
15	
13	
14	
13	
17	
12	
18	
22	
18	
15	
11	
16	
11	
21	
18	
13	
12	
13	
23	
14	
18	
16	
11	
31	
13	
14	
19	
16	
10	
17	
15	
14	
13	
19	
14	
16	
23	
11	
10	
15	
15	
17	
10	
13	
13	
13	
16	
18	
13	
16	
18	
7	
16	
13	
14	
16	
13	
22	
12	
17	
17	
8	
15	
15	
19	
17	
9	
16	
8	
13	
17	
10	
18	
17	
23	
13	
14	
18	
12	
12	
11	
11	
10	
16	
13	
11	
11	
12	
14	
16	
11	
5	
18	
9	
17	
15	
15	
17	
19	
11	
10	
21	
10	
11	
20	
9	
18	
18	
9	
12	
13	
16	
17	
13	
15	
12	
25	
11	
16	
17	
11	
15	
18	
10	
10	
16	
13	
10	
16	
7	
16	
13	
13	
15	
11	
14	
15	
14	
9	
11	
13	
13	
8	
9	
17	
16	
9	
5	
15	
9	
15	
14	
13	
13	
13	
11	
14	
7	
11	
15	
20	
13	
9	
15	
10	
11	
16	
19	
10	
13	
18	
16	
13	
14	
14	
9	
10	
13	
14	
17	
15	
15	
15	
17	
12	
21	
9	
6	
11	
12	
15	
16	
16	
11	
8	
11	
15	
11	
7	
13	
13	
13	
12	
17	
11	
14	
9	
9	
10	
6	
14	
14	
17	
6	
18	
11	
16	
13	
13	
10	
15	
8	
11	
14	
9	
8	
10	
10	
12	
8	
16	
13	
6	
9	
15	
9	
6	
18	
6	
14	
17	
9	
12	
15	
13	
7	
11	
9	
10	
12	
9	
11	
19	
8	
9	
11	
14	
11	
9	
12	
17	
10	
11	
9	
7	
11	
11	
11	
15	
10	
7	
11	
5	
8	
6	
8	
10	
8	
14	
8	
13	
9	
5	
9	
9	
12	
12	
13	
8	
17	
12	
11	
6	
9	
12	
6	
11	
7	
10	
17	
14	
12	
10	
8	
8	
6	
13	
9	
16	
14	
11	
13	
8	
10	
10	
7	
13	
12	
10	
8	
6	
10	
6	
6	
13	
9	
12	
9	
7	
12	
9	
10	
9	
5	
9	
8	
9	
12	
7	
15	
15	
9	
7	
9	
6	
6	
10	
15	
11	
12	
12	
7	
10	
10	
9	
13	
6	
10	
7	
6	
12	
3	
9	
11	
12	
9	
7	
5	
9	
5	
7	
10	
6	
11	
7	
13	
12	
17	
10	
9	
9	
5	
5	
7	
7	
9	
7	
7	
5	
17	
8	
20	
13	
10	
9	
10	
11	
9	
11	
9	
17	
8	
6	
13	
13	
9	
5	
15	
5	
7	
7	
9	
8	
9	
7	
13	
8	
10	
9	
8	
9	
10	
8	
16	
9	
12	
9	
7	
5	
13	
3	
11	
6	
7	
10	
10	
7	
8	
9	
7	
13	
7	
9	
14	
7	
12	
10	
10	
6	
10	
8	
11	
13	
11	
9	
10	
5	
7	
9	
10	
11	
7	
8	
12	
7	
4	
5	
9	
6	
13	
5	
11	
5	
13	
9	
7	
5	
10	
10	
10	
7	
10	
10	
12	
9	
11	
11	
6	
5	
13	
7	
10	
6	
10	
15	
12	
14	
10	
6	
6	
9	
6	
8	
10	
7	
6	
7	
12	
8	
9	
8	
10	
6	
14	
6	
5	
5	
5	
14	
11	
5	
4	
3	
7	
6	
14	
8	
9	
2	
4	
8	
12	
9	
10	
4	
8	
4	
8	
5	
7	
5	
7	
10	
7	
8	
6	
8	
9	
6	
7	
11	
13	
8	
5	
7	
9	
7	
11	
9	
7	
9	
6	
12	
5	
5	
9	
8	
6	
10	
11	
9	
12	
5	
8	
5	
12	
11	
8	
3	
5	
13	
4	
8	
9	
9	
5	
8	
10	
5	
10	
12	
12	
12	
8	
5	
4	
8	
10	
8	
4	
4	
9	
5	
5	
8	
5	
8	
8	
9	
10	
12	
5	
7	
5	
12	
2	
4	
10	
6	
4	
7	
13	
7	
13	
6	
12	
5	
8	
6	
10	
7	
5	
4	
9	
7	
7	
14	
12	
9	
14	
5	
8	
6	
12	
6	
8	
11	
7	
6	
6	
8	
10	
11	
9	
3	
4	
7	
11	
11	
11	
5	
5	
8	
5	
6	
5	
5	
5	
7	
8	
9	
8	
7	
6	
12	
10	
7	
8	
14	
7	
8	
9	
6	
10	
9	
7	
8	
5	
5	
4	
8	
8	
8	
5	
6	
6	
6	
7	
7	
6	
10	
7	
6	
10	
8	
9	
13	
9	
5	
6	
8	
6	
10	
4	
3	
2	
5	
4	
4	
6	
8	
4	
11	
4	
9	
7	
5	
5	
6	
7	
5	
10	
5	
9	
6	
9	
11	
5	
7	
6	
5	
7	
3	
7	
6	
7	
9	
7	
9	
7	
6	
5	
5	
4	
4	
8	
8	
10	
6	
7	
6	
7	
7	
7	
7	
8	
4	
9	
10	
4	
3	
13	
7	
8	
5	
6	
6	
9	
5	
4	
10	
11	
13	
8	
9	
5	
10	
6	
7	
5	
5	
8	
9	
11	
2	
10	
5	
4	
10	
9	
6	
11	
5	
8	
7	
6	
6	
6	
5	
7	
6	
9	
5	
6	
9	
6	
6	
8	
7	
5	
5	
8	
4	
5	
5	
10	
6	
9	
10	
4	
7	
5	
3	
6	
3	
7	
4	
4	
7	
6	
5	
7	
9	
11	
6	
3	
10	
2	
10	
10	
6	
7	
6	
8	
5	
2	
10	
5	
7	
7	
9	
1	
6	
3	
6	
12	
7	
5	
11	
8	
9	
6	
12	
4	
4	
5	
3	
6	
1	
10	
4	
4	
5	
4	
10	
6	
3	
9	
7	
8	
5	
5	
3	
5	
10	
7	
8	
5	
5	
4	
5	
7	
1	
6	
8	
1	
6	
2	
9	
4	
4	
3	
3	
5	
14	
5	
6	
2	
5	
10	
4	
11	
4	
4	
4	
7	
8	
6	
8	
11	
4	
8	
3	
7	
10	
8	
5	
6	
10	
5	
7	
5	
4	
6	
7	
5	
4	
9	
6	
7	
6	
7	
4	
8	
6	
4	
7	
4	
5	
5	
6	
1	
2	
1	
4	
6	
3	
11	
5	
10	
6	
6	
3	
2	
6	
6	
4	
4	
3	
7	
5	
5	
3	
8	
4	
5	
6	
2	
4	
7	
8	
5	
6	
8	
3	
11	
8	
3	
3	
9	
6	
5	
5	
8	
3	
2	
9	
6	
14	
12	
6	
9	
7	
5	
11	
6	
9	
4	
3	
4	
11	
4	
2	
5	
6	
6	
6	
5	
8	
7	
9	
4	
2	
6	
3	
7	
3	
5	
6	
2	
8	
4	
6	
5	
7	
6	
2	
4	
5	
6	
6	
6	
7	
3	
6	
3	
6	
10	
5	
3	
7	
4	
4	
6	
7	
8	
5	
9	
4	
8	
3	
5	
8	
9	
2	
6	
4	
3	
4	
9	
12	
7	
5	
7	
7	
7	
6	
5	
5	
11	
3	
6	
5	
4	
7	
3	
11	
8	
4	
10	
5	
6	
5	
4	
8	
8	
8	
1	
5	
7	
7	
5	
4	
2	
7	
5	
3	
9	
3	
5	
8	
9	
6	
3	
3	
9	
6	
10	
3	
5	
3	
8	
3	
6	
7	
5	
11	
0	
3	
6	
4	
3	
5	
7	
5	
5	
8	
5	
5	
4	
5	
2	
7	
9	
8	
2	
2	
3	
2	
1	
4	
7	
8	
9	
6	
4	
4	
4	
8	
5	
2	
2	
2	
6	
8	
4	
1	
11	
2	
5	
8	
4	
12	
4	
9	
7	
7	
5	
6	
1	
4	
7	
3	
7	
7	
6	
3	
8	
6	
2	
5	
3	
7	
5	
5	
4	
6	
10	
5	
8	
3	
5	
4	
5	
3	
1	
5	
6	
7	
4	
4	
6	
6	
1	
4	
2	
4	
5	
8	
7	
4	
6	
6	
4	
5	
5	
4	
9	
8	
4	
6	
5	
6	
7	
2	
4	
4	
6	
11	
5	
6	
3	
6	
4	
6	
4	
6	
8	
1	
5	
4	
3	
6	
8	
3	
7	
5	
3	
5	
3	
5	
5	
3	
5	
5	
1	
3	
6	
4	
5	
11	
7	
3	
5	
5	
8	
4	
6	
10	
3	
3	
2	
3	
9	
4	
4	
2	
1	
4	
2	
2	
9	
3	
1	
5	
7	
5	
6	
8	
8	
4	
9	
4	
4	
5	
5	
5	
5	
6	
6	
13	
5	
4	
6	
2	
7	
4	
4	
4	
5	
1	
3	
3	
5	
5	
2	
3	
4	
7	
7	
5	
5	
5	
6	
5	
5	
7	
4	
2	
8	
5	
6	
3	
7	
6	
2	
6	
1	
5	
1	
2	
8	
4	
5	
4	
6	
2	
3	
5	
3	
4	
6	
5	
4	
8	
6	
4	
3	
6	
5	
6	
6	
6	
4	
5	
3	
8	
5	
7	
4	
5	
3	
6	
6	
7	
6	
7	
2	
5	
12	
4	
4	
7	
5	
4	
4	
5	
5	
2	
6	
3	
4	
3	
8	
6	
3	
6	
3	
6	
4	
7	
8	
7	
2	
6	
3	
5	
8	
4	
4	
6	
5	
2	
2	
4	
8	
6	
6	
2	
2	
4	
12	
5	
5	
6	
1	
4	
10	
9	
2	
6	
3	
4	
2	
7	
7	
3	
5	
8	
6	
6	
4	
5	
4	
7	
5	
8	
4	
3	
3	
5	
7	
1	
3	
0	
4	
4	
4	
10	
6	
6	
4	
6	
7	
5	
5	
9	
12	
4	
8	
9	
9	
5	
7	
1	
5	
3	
2	
2	
3	
3	
2	
5	
3	
2	
5	
6	
3	
7	
4	
3	
4	
6	
5	
4	
7	
6	
2	
2	
5	
7	
3	
5	
5	
3	
2	
3	
3	
6	
3	
3	
4	
6	
10	
5	
4	
7	
6	
5	
3	
5	
5	
9	
5	
8	
5	
0	
2	
7	
7	
1	
4	
4	
3	
5	
1	
7	
4	
5	
3	
3	
6	
8	
3	
6	
1	
3	
5	
2	
5	
5	
5	
6	
6	
2	
4	
2	
2	
5	
7	
3	
6	
1	
4	
8	
5	
3	
5	
1	
6	
4	
8	
6	
8	
9	
4	
3	
2	
8	
4	
3	
6	
6	
6	
1	
5	
6	
5	
4	
1	
4	
10	
3	
3	
3	
6	
3	
6	
6	
5	
5	
3	
2	
0	
2	
1	
8	
7	
4	
1	
3	
3	
3	
7	
2	
3	
2	
7	
7	
3	
5	
4	
4	
5	
1	
8	
6	
4	
4	
1	
3	
1	
3	
5	
1	
4	
7	
3	
3	
5	
4	
5	
4	
4	
3	
1	
7	
2	
1	
3	
4	
7	
3	
5	
4	
5	
4	
2	
2	
3	
5	
5	
5	
3	
4	
5	
1	
2	
7	
5	
4	
5	
5	
6	
4	
6	
0	
4	
1	
8	
2	
5	
4	
4	
2	
5	
3	
5	
3	
4	
8	
4	
3	
3	
9	
6	
6	
4	
3	
3	
5	
8	
9	
4	
3	
6	
4	
5	
9	
6	
6	
5	
6	
7	
3	
3	
3	
3	
3	
4	
6	
2	
4	
5	
4	
5	
4	
5	
3	
6	
4	
4	
4	
5	
1	
5	
1	
6	
6	
3	
3	
4	
3	
4	
8	
0	
1	
2	
2	
7	
5	
6	
5	
6	
2	
2	
8	
4	
5	
6	
1	
6	
4	
1	
5	
3	
8	
8	
5	
3	
7	
4	
3	
3	
3	
3	
3	
1	
5	
7	
3	
3	
4	
2	
5	
5	
5	
5	
3	
4	
1	
4	
5	
1	
4	
6	
4	
4	
3	
9	
4	
0	
3	
5	
8	
5	
8	
5	
6	
9	
6	
5	
1	
3	
3	
5	
7	
2	
6	
4	
1	
5	
3	
3	
2	
4	
3	
4	
4	
2	
3	
4	
7	
1	
4	
2	
5	
10	
4	
4	
2	
0	
4	
6	
4	
2	
2	
2	
5	
3	
6	
4	
1	
3	
2	
5	
2	
5	
4	
4	
4	
3	
4	
3	
10	
9	
1	
2	
3	
5	
6	
5	
9	
2	
5	
4	
5	
4	
4	
3	
3	
3	
5	
6	
3	
6	
3	
8	
4	
2	
7	
5	
4	
4	
8	
5	
3	
4	
4	
10	
6	
5	
2	
2	
7	
4	
2	
2	
3	
0	
2	
7	
8	
4	
5	
2	
7	
5	
4	
6	
2	
3	
4	
2	
4	
4	
3	
5	
2	
2	
5	
2	
4	
1	
9	
3	
3	
4	
7	
4	
6	
5	
3	
4	
3	
5	
1	
3	
4	
4	
5	
1	
4	
3	
5	
5	
3	
0	
2	
6	
5	
3	
6	
0	
5	
5	
5	
5	
5	
2	
4	
6	
3	
2	
4	
2	
6	
3	
1	
4	
8	
4	
4	
3	
5	
6	
3	
2	
5	
6	
6	
3	
4	
7	
2	
3	
2	
1	
8	
5	
5	
5	
8	
2	
5	
2	
3	
2	
5	
3	
6	
3	
2	
2	
7	
5	
5	
4	
6	
2	
5	
8	
4	
4	
2	
5	
3	
3	
4	
2	
12	
5	
5	
5	
3	
7	
1	
3	
5	
6	
7	
4	
1	
4	
2	
6	
2	
1	
5	
4	
4	
2	
4	
2	
1	
4	
2	
1	
0	
1	
2	
2	
4	
3	
0	
5	
8	
4	
1	
5	
3	
6	
4	
4	
5	
2	
6	
7	
3	
3	
2	
1	
1	
5	
2	
3	
3	
5	
5	
5	
4	
2	
5	
4	
5	
8	
4	
6	
2	
5	
2	
4	
2	
3	
4	
4	
1	
6	
3	
2	
3	
4	
2	
3	
4	
4	
2	
6	
8	
6	
3	
6	
2	
7	
3	
6	
4	
5	
5	
2	
5	
4	
2	
5	
2	
4	
9	
6	
1	
5	
3	
3	
4	
0	
4	
7	
3	
2	
3	
2	
2	
5	
1	
4	
2	
5	
4	
5	
5	
2	
4	
6	
4	
4	
5	
0	
10	
5	
3	
3	
5	
5	
2	
3	
3	
7	
2	
9	
2	
2	
4	
1	
3	
5	
5	
4	
5	
2	
5	
2	
7	
3	
3	
4	
3	
2	
2	
4	
4	
3	
3	
2	
3	
2	
4	
1	
3	
3	
4	
4	
5	
4	
3	
5	
3	
1	
2	
6	
2	
2	
3	
2	
3	
4	
1	
3	
5	
3	
4	
6	
4	
4	
2	
4	
3	
5	
4	
8	
5	
2	
3	
1	
4	
4	
7	
5	
4	
2	
6	
3	
4	
6	
2	
3	
3	
5	
2	
4	
4	
1	
3	
7	
3	
5	
3	
5	
2	
3	
5	
2	
4	
2	
8	
7	
2	
5	
5	
3	
2	
4	
6	
3	
4	
4	
3	
2	
3	
4	
6	
11	
3	
0	
4	
5	
5	
5	
3	
5	
6	
2	
3	
3	
3	
2	
5	
2	
1	
4	
3	
8	
4	
2	
8	
1	
2	
4	
3	
4	
3	
6	
2	
3	
4	
7	
1	
3	
2	
7	
6	
9	
6	
1	
1	
2	
4	
7	
3	
5	
1	
5	
4	
4	
3	
6	
5	
4	
3	
2	
2	
1	
3	
0	
4	
3	
3	
5	
2	
5	
2	
1	
2	
4	
1	
5	
1	
7	
1	
4	
3	
1	
2	
4	
3	
4	
5	
8	
4	
2	
3	
1	
2	
5	
5	
7	
7	
1	
3	
4	
2	
5	
3	
7	
5	
5	
5	
3	
1	
2	
5	
3	
3	
5	
4	
3	
3	
5	
4	
2	
3	
6	
3	
5	
7	
4	
3	
5	
2	
4	
2	
3	
5	
5	
2	
1	
4	
7	
7	
1	
1	
5	
5	
3	
1	
2	
3	
5	
3	
4	
4	
3	
5	
1	
1	
3	
6	
5	
4	
2	
1	
7	
6	
3	
4	
4	
8	
3	
3	
6	
2	
4	
2	
3	
5	
3	
0	
3	
3	
5	
1	
5	
7	
4	
1	
2	
2	
6	
2	
6	
4	
3	
6	
1	
3	
4	
3	
2	
1	
2	
1	
2	
2	
2	
5	
3	
5	
5	
1	
4	
0	
4	
1	
3	
3	
2	
4	
1	
6	
5	
7	
1	
5	
1	
4	
4	
4	
4	
5	
2	
4	
1	
4	
5	
3	
3	
2	
1	
3	
3	
6	
4	
6	
6	
4	
4	
3	
3	
3	
6	
10	
2	
2	
4	
2	
5	
5	
4	
4	
7	
3	
4	
2	
1	
4	
4	
3	
7	
4	
4	
2	
4	
3	
2	
3	
2	
1	
2	
0	
5	
2	
4	
10	
3	
6	
2	
4	
5	
2	
6	
5	
2	
1	
2	
1	
6	
6	
2	
3	
0	
2	
2	
1	
1	
2	
1	
2	
3	
3	
3	
6	
3	
4	
2	
2	
4	
4	
5	
6	
3	
2	
6	
5	
3	
2	
1	
5	
3	
3	
4	
5	
4	
5	
4	
1	
6	
3	
1	
5	
5	
2	
2	
1	
2	
4	
2	
2	
3	
3	
2	
4	
8	
2	
5	
2	
3	
3	
2	
6	
6	
4	
2	
6	
4	
3	
2	
4	
2	
7	
5	
1	
1	
5	
3	
3	
4	
6	
2	
2	
2	
4	
5	
6	
2	
3	
3	
2	
2	
2	
6	
4	
2	
3	
4	
5	
5	
6	
0	
6	
1	
5	
1	
1	
2	
8	
3	
3	
5	
11	
4	
4	
5	
5	
1	
2	
3	
1	
5	
4	
3	
2	
1	
4	
2	
2	
1	
1	
2	
5	
2	
3	
1	
3	
1	
6	
0	
2	
5	
1	
6	
4	
5	
3	
4	
3	
5	
5	
6	
2	
7	
2	
3	
2	
3	
4	
3	
2	
5	
6	
2	
3	
2	
4	
3	
0	
4	
4	
4	
3	
4	
3	
1	
8	
3	
3	
1	
2	
3	
3	
5	
2	
5	
6	
5	
0	
3	
3	
5	
5	
3	
0	
2	
2	
7	
2	
2	
3	
6	
2	
0	
5	
2	
0	
2	
4	
1	
2	
3	
4	
5	
3	
7	
2	
5	
4	
5	
2	
1	
5	
2	
4	
6	
5	
1	
5	
4	
5	
5	
2	
3	
6	
2	
4	
2	
2	
2	
4	
6	
2	
4	
3	
3	
6	
5	
3	
5	
2	
3	
5	
3	
2	
4	
2	
3	
7	
3	
2	
0	
4	
4	
1	
2	
4	
5	
5	
4	
4	
2	
1	
1	
4	
5	
7	
5	
3	
1	
0	
2	
0	
1	
6	
4	
2	
4	
0	
6	
2	
3	
6	
0	
3	
2	
6	
3	
5	
4	
2	
4	
3	
5	
2	
3	
2	
3	
1	
3	
3	
4	
5	
5	
6	
6	
4	
4	
0	
3	
0	
1	
5	
6	
3	
5	
4	
3	
1	
1	
2	
7	
7	
2	
3	
2	
1	
4	
2	
4	
2	
0	
5	
0	
6	
0	
3	
4	
5	
3	
2	
4	
3	
1	
3	
3	
1	
2	
2	
3	
5	
1	
4	
3	
4	
2	
4	
2	
2	
3	
6	
3	
6	
9	
2	
1	
3	
8	
3	
2	
1	
0	
5	
6	
3	
4	
3	
1	
8	
4	
1	
2	
3	
2	
4	
5	
2	
6	
3	
3	
4	
6	
1	
4	
4	
7	
6	
2	
2	
4	
3	
2	
4	
3	
6	
3	
5	
4	
3	
5	
4	
2	
1	
3	
4	
6	
2	
1	
4	
1	
4	
3	
8	
4	
2	
4	
5	
4	
5	
5	
1	
6	
4	
5	
6	
3	
4	
4	
3	
3	
1	
8	
4	
4	
0	
3	
4	
3	
1	
3	
6	
3	
4	
4	
4	
4	
1	
3	
5	
2	
8	
2	
2	
3	
6	
5	
4	
4	
4	
5	
2	
7	
2	
1	
4	
6	
1	
2	
6	
2	
3	
8	
1	
2	
1	
6	
5	
6	
3	
5	
0	
0	
3	
3	
3	
5	
7	
3	
6	
5	
2	
4	
1	
4	
2	
3	
3	
2	
2	
3	
3	
3	
5	
4	
5	
9	
8	
3	
4	
5	
0	
3	
6	
5	
2	
3	
2	
2	
2	
3	
2	
5	
3	
5	
2	
0	
3	
2	
3	
0	
2	
4	
5	
2	
4	
4	
4	
4	
1	
5	
5	
4	
2	
6	
3	
5	
2	
6	
5	
2	
3	
2	
3	
2	
4	
1	
4	
2	
8	
3	
6	
5	
2	
4	
2	
1	
4	
5	
4	
1	
2	
4	
2	
4	
4	
3	
2	
7	
6	
2	
2	
8	
3	
2	
1	
3	
2	
4	
5	
3	
3	
3	
2	
4	
3	
4	
2	
4	
4	
4	
3	
2	
1	
4	
1	
6	
5	
5	
3	
5	
5	
3	
2	
3	
5	
0	
0	
1	
6	
1	
2	
5	
5	
2	
3	
3	
1	
3	
1	
3	
1	
4	
0	
7	
2	
2	
2	
2	
9	
2	
4	
5	
2	
2	
0	
0	
3	
5	
3	
5	
1	
4	
6	
4	
4	
2	
1	
6	
2	
2	
4	
2	
4	
3	
3	
3	
2	
4	
4	
5	
1	
3	
2	
6	
6	
0	
5	
5	
3	
3	
3	
3	
1	
2	
3	
2	
0	
5	
4	
2	
1	
2	
3	
5	
3	
5	
4	
6	
6	
6	
3	
2	
2	
4	
3	
1	
3	
1	
5	
3	
6	
3	
4	
3	
5	
2	
2	
3	
1	
0	
3	
3	
3	
4	
2	
3	
4	
1	
2	
5	
1	
6	
1	
3	
2	
5	
2	
2	
4	
6	
2	
9	
2	
4	
1	
7	
2	
4	
2	
1	
4	
2	
4	
5	
1	
3	
1	
4	
7	
1	
1	
1	
2	
2	
3	
5	
6	
2	
1	
2	
3	
1	
4	
2	
1	
4	
4	
4	
4	
5	
3	
2	
2	
3	
2	
2	
5	
3	
4	
3	
3	
3	
6	
1	
4	
4	
1	
4	
2	
7	
6	
2	
3	
1	
4	
1	
2	
5	
1	
4	
4	
3	
5	
3	
4	
6	
4	
3	
2	
6	
1	
3	
2	
0	
2	
3	
5	
1	
3	
3	
5	
6	
6	
3	
1	
2	
7	
4	
3	
2	
5	
5	
5	
3	
2	
5	
2	
7	
4	
4	
3	
2	
5	
6	
2	
3	
6	
6	
2	
0	
2	
1	
0	
4	
2	
2	
1	
0	
6	
0	
2	
4	
0	
2	
5	
2	
2	
4	
3	
5	
4	
1	
3	
4	
3	
3	
1	
8	
4	
6	
6	
1	
7	
4	
5	
2	
3	
0	
2	
0	
5	
2	
1	
4	
2	
2	
2	
2	
2	
2	
2	
2	
4	
4	
4	
3	
2	
4	
0	
2	
3	
3	
4	
5	
4	
0	
5	
2	
2	
4	
4	
5	
4	
1	
5	
0	
2	
2	
0	
1	
2	
4	
4	
1	
2	
3	
4	
2	
3	
2	
4	
2	
5	
1	
2	
2	
1	
9	
4	
5	
2	
7	
7	
2	
1	
2	
3	
2	
5	
1	
0	
2	
2	
5	
2	
2	
3	
2	
5	
5	
3	
2	
4	
1	
4	
4	
4	
4	
4	
6	
3	
3	
4	
5	
5	
2	
5	
1	
4	
3	
1	
2	
1	
3	
4	
2	
5	
5	
2	
5	
2	
6	
2	
4	
4	
4	
6	
4	
1	
3	
4	
2	
3	
2	
2	
4	
7	
3	
4	
1	
3	
4	
2	
7	
2	
7	
2	
1	
2	
3	
3	
2	
5	
3	
3	
3	
0	
2	
4	
5	
3	
1	
1	
1	
4	
2	
5	
3	
3	
5	
3	
1	
4	
5	
3	
3	
2	
2	
1	
1	
5	
2	
8	
3	
1	
4	
4	
4	
2	
2	
3	
0	
0	
4	
8	
3	
2	
3	
3	
0	
4	
0	
6	
4	
3	
2	
2	
4	
3	
1	
2	
4	
6	
3	
3	
4	
3	
3	
3	
3	
3	
1	
1	
3	
3	
1	
5	
0	
3	
2	
1	
1	
2	
5	
6	
1	
4	
2	
5	
4	
4	
3	
2	
3	
3	
2	
2	
1	
2	
3	
4	
2	
2	
2	
6	
2	
1	
1	
2	
3	
4	
5	
4	
5	
5	
4	
4	
4	
6	
4	
1	
4	
5	
1	
4	
4	
2	
1	
3	
0	
2	
2	
4	
3	
2	
1	
5	
3	
0	
1	
3	
2	
4	
3	
6	
2	
6	
1	
4	
0	
2	
8	
5	
5	
3	
5	
3	
2	
4	
3	
1	
7	
4	
0	
4	
4	
0	
6	
2	
1	
2	
3	
6	
2	
4	
1	
4	
3	
3	
5	
3	
4	
3	
4	
1	
6	
1	
8	
5	
1	
2	
2	
3	
0	
6	
4	
4	
3	
8	
3	
2	
3	
5	
1	
4	
2	
5	
2	
2	
4	
1	
0	
2	
2	
1	
2	
0	
2	
1	
4	
3	
1	
6	
2	
2	
3	
3	
1	
1	
5	
1	
1	
5	
2	
4	
2	
6	
6	
2	
1	
3	
2	
4	
4	
3	
4	
1	
6	
1	
2	
0	
4	
4	
3	
2	
2	
6	
2	
5	
5	
4	
4	
6	
4	
3	
1	
3	
3	
2	
6	
3	
2	
2	
3	
0	
4	
3	
3	
3	
9	
2	
3	
3	
2	
3	
3	
0	
1	
3	
3	
6	
6	
2	
5	
3	
2	
2	
0	
1	
6	
4	
3	
5	
1	
2	
3	
1	
2	
1	
1	
2	
1	
1	
5	
3	
2	
3	
5	
4	
0	
1	
5	
2	
7	
3	
4	
3	
2	
5	
3	
1	
4	
4	
4	
1	
4	
1	
5	
4	
3	
1	
2	
3	
5	
7	
4	
1	
0	
2	
5	
3	
4	
2	
7	
2	
2	
5	
4	
2	
5	
3	
5	
3	
2	
5	
2	
5	
1	
1	
5	
1	
7	
0	
1	
4	
1	
3	
0	
4	
6	
1	
3	
1	
5	
2	
1	
4	
2	
4	
4	
2	
5	
4	
1	
5	
1	
2	
4	
2	
3	
3	
4	
2	
2	
8	
5	
7	
6	
2	
3	
1	
2	
0	
5	
1	
8	
3	
3	
3	
4	
4	
4	
1	
1	
6	
4	
2	
4	
7	
3	
4	
3	
3	
3	
1	
3	
3	
4	
4	
2	
4	
5	
3	
7	
3	
3	
1	
1	
2	
1	
1	
3	
1	
3	
1	
4	
3	
6	
2	
4	
3	
1	
2	
3	
3	
3	
5	
3	
5	
5	
0	
1	
1	
1	
4	
3	
1	
5	
6	
3	
2	
1	
1	
2	
3	
3	
3	
2	
3	
3	
4	
2	
2	
3	
2	
4	
2	
1	
5	
6	
4	
1	
3	
1	
2	
0	
6	
0	
1	
2	
1	
3	
1	
2	
1	
2	
3	
4	
0	
1	
4	
1	
6	
2	
3	
4	
5	
3	
2	
4	
1	
3	
1	
3	
5	
1	
3	
1	
1	
4	
2	
1	
2	
0	
1	
4	
6	
6	
3	
2	
1	
3	
2	
2	
4	
3	
4	
5	
2	
6	
2	
5	
1	
9	
4	
2	
6	
4	
2	
1	
4	
4	
4	
2	
6	
4	
3	
2	
4	
0	
4	
0	
0	
4	
2	
4	
4	
1	
4	
3	
4	
1	
3	
1	
3	
1	
1	
5	
1	
4	
2	
4	
3	
2	
2	
1	
4	
3	
4	
2	
4	
1	
2	
0	
2	
1	
1	
3	
2	
2	
5	
6	
4	
5	
2	
3	
4	
7	
0	
4	
4	
9	
2	
8	
1	
3	
1	
3	
0	
1	
6	
3	
2	
2	
3	
3	
3	
6	
1	
3	
4	
3	
2	
0	
4	
1	
3	
1	
4	
4	
3	
5	
3	
4	
2	
4	
2	
2	
5	
0	
3	
4	
0	
2	
4	
3	
4	
3	
0	
3	
5	
2	
3	
4	
3	
2	
0	
1	
1	
4	
3	
3	
3	
5	
4	
0	
2	
3	
3	
4	
5	
2	
2	
3	
2	
2	
4	
3	
4	
4	
1	
1	
2	
1	
3	
4	
2	
1	
1	
6	
3	
5	
2	
5	
3	
0	
1	
2	
3	
2	
6	
4	
2	
2	
3	
2	
1	
1	
6	
6	
2	
1	
1	
3	
4	
4	
3	
3	
1	
3	
3	
2	
2	
5	
1	
1	
3	
6	
0	
3	
4	
2	
1	
3	
3	
9	
3	
5	
5	
6	
0	
2	
2	
6	
4	
5	
0	
2	
4	
3	
2	
2	
2	
3	
1	
3	
3	
2	
4	
1	
7	
2	
3	
1	
3	
1	
2	
3	
3	
3	
0	
2	
3	
2	
2	
2	
3	
2	
3	
0	
4	
2	
3	
3	
4	
4	
2	
4	
5	
2	
2	
2	
0	
3	
4	
1	
1	
8	
5	
3	
1	
4	
7	
2	
5	
2	
2	
3	
3	
2	
1	
5	
0	
4	
4	
7	
1	
1	
6	
1	
3	
4	
4	
4	
1	
2	
1	
5	
2	
0	
1	
3	
0	
4	
6	
4	
0	
1	
7	
4	
0	
4	
3	
4	
1	
5	
0	
1	
1	
3	
0	
1	
0	
1	
3	
2	
1	
7	
3	
2	
4	
3	
2	
3	
3	
3	
4	
2	
4	
2	
5	
1	
4	
4	
2	
4	
8	
0	
1	
3	
7	
2	
1	
1	
3	
3	
3	
1	
2	
0	
1	
1	
4	
3	
3	
6	
3	
2	
2	
1	
3	
2	
4	
4	
1	
1	
2	
2	
1	
4	
0	
5	
3	
2	
4	
2	
4	
2	
6	
2	
0	
2	
3	
0	
3	
6	
5	
3	
2	
4	
2	
4	
3	
3	
3	
2	
3	
4	
6	
5	
3	
1	
0	
1	
4	
4	
2	
1	
0	
2	
4	
3	
0	
1	
4	
4	
5	
2	
2	
2	
5	
1	
3	
6	
2	
2	
4	
2	
1	
3	
4	
2	
2	
3	
4	
1	
2	
3	
4	
4	
1	
1	
4	
4	
2	
1	
2	
3	
2	
3	
0	
3	
6	
4	
1	
2	
1	
5	
3	
1	
1	
6	
3	
5	
6	
4	
2	
5	
1	
5	
2	
3	
4	
5	
3	
2	
6	
1	
4	
4	
2	
1	
5	
3	
2	
0	
1	
2	
1	
1	
3	
3	
1	
4	
1	
3	
4	
1	
2	
3	
5	
2	
1	
4	
3	
5	
1	
4	
2	
5	
0	
2	
3	
2	
5	
0	
5	
1	
2	
2	
3	
5	
2	
4	
3	
0	
4	
3	
2	
1	
1	
1	
1	
0	
1	
2	
2	
0	
4	
4	
1	
2	
3	
1	
4	
3	
4	
2	
3	
2	
3	
3	
0	
3	
1	
4	
5	
4	
2	
0	
2	
5	
3	
2	
0	
2	
3	
5	
3	
6	
4	
8	
5	
2	
3	
4	
3	
2	
4	
3	
2	
1	
4	
1	
5	
0	
2	
4	
2	
1	
1	
2	
1	
1	
2	
3	
2	
4	
2	
3	
1	
5	
4	
0	
0	
1	
2	
4	
2	
3	
3	
9	
4	
3	
3	
3	
2	
3	
2	
6	
0	
2	
2	
1	
2	
0	
2	
1	
0	
4	
7	
1	
5	
4	
4	
2	
4	
5	
2	
4	
4	
4	
3	
2	
1	
4	
4	
6	
6	
3	
2	
3	
5	
1	
3	
0	
4	
1	
2	
1	
5	
4	
2	
7	
2	
3	
3	
2	
1	
7	
5	
1	
1	
4	
3	
2	
2	
1	
5	
2	
5	
2	
5	
2	
0	
2	
3	
4	
2	
2	
3	
3	
2	
2	
3	
1	
1	
1	
2	
3	
2	
1	
4	
1	
1	
7	
5	
3	
1	
0	
5	
1	
3	
4	
4	
5	
1	
2	
2	
2	
3	
1	
4	
6	
1	
2	
5	
3	
4	
3	
2	
2	
1	
5	
1	
1	
6	
5	
6	
3	
2	
1	
3	
3	
1	
2	
1	
3	
3	
4	
1	
4	
2	
3	
4	
3	
3	
2	
6	
2	
1	
2	
4	
3	
2	
2	
1	
2	
2	
2	
4	
3	
5	
4	
1	
3	
5	
5	
5	
0	
1	
1	
2	
7	
4	
2	
6	
2	
0	
5	
6	
2	
4	
9	
4	
3	
3	
5	
1	
6	
1	
2	
3	
1	
1	
4	
1	
2	
7	
1	
3	
4	
3	
4	
3	
2	
4	
1	
4	
2	
2	
2	
0	
4	
5	
1	
4	
2	
1	
5	
6	
4	
4	
3	
1	
2	
4	
5	
1	
3	
1	
2	
3	
1	
4	
2	
4	
3	
0	
3	
1	
1	
3	
3	
2	
2	
4	
3	
8	
5	
4	
3	
1	
3	
5	
4	
1	
4	
1	
2	
1	
3	
2	
4	
3	
1	
0	
1	
1	
1	
5	
2	
3	
3	
2	
4	
4	
4	
3	
1	
3	
2	
2	
5	
5	
5	
2	
0	
4	
5	
2	
2	
3	
4	
5	
2	
4	
3	
4	
1	
1	
1	
4	
3	
3	
0	
3	
2	
2	
3	
3	
7	
1	
1	
5	
2	
3	
5	
2	
2	
2	
5	
2	
5	
0	
3	
3	
2	
2	
2	
2	
5	
3	
4	
2	
2	
1	
4	
7	
5	
0	
3	
4	
2	
4	
2	
5	
5	
4	
2	
3	
3	
6	
6	
1	
1	
3	
3	
3	
4	
1	
2	
1	
3	
1	
2	
2	
0	
3	
2	
3	
2	
2	
5	
0	
1	
3	
6	
1	
2	
2	
6	
4	
2	
4	
3	
2	
3	
4	
5	
1	
1	
2	
3	
1	
5	
1	
1	
5	
4	
2	
5	
2	
4	
4	
2	
2	
3	
2	
4	
3	
2	
4	
2	
0	
2	
5	
2	
4	
5	
3	
6	
3	
3	
3	
3	
3	
3	
0	
1	
3	
6	
4	
7	
6	
2	
1	
3	
5	
7	
4	
4	
2	
4	
1	
1	
2	
0	
3	
3	
4	
1	
0	
2	
2	
2	
6	
4	
1	
3	
2	
4	
7	
1	
6	
1	
3	
3	
1	
4	
4	
0	
2	
2	
3	
1	
3	
7	
4	
3	
3	
2	
2	
1	
1	
1	
2	
3	
2	
2	
4	
4	
1	
5	
3	
2	
1	
2	
4	
2	
5	
3	
4	
2	
2	
3	
7	
5	
3	
1	
4	
4	
3	
0	
2	
4	
4	
4	
7	
0	
4	
1	
2	
5	
1	
3	
1	
3	
3	
3	
1	
2	
3	
1	
3	
3	
2	
2	
0	
2	
0	
5	
3	
1	
4	
4	
4	
0	
3	
3	
3	
3	
3	
3	
4	
2	
2	
1	
2	
4	
0	
5	
6	
4	
7	
0	
3	
5	
5	
6	
2	
4	
0	
3	
4	
1	
1	
5	
3	
2	
1	
5	
6	
0	
6	
0	
2	
5	
4	
3	
1	
1	
6	
2	
4	
2	
1	
2	
3	
6	
3	
1	
3	
4	
1	
2	
0	
5	
3	
1	
3	
1	
3	
2	
2	
4	
1	
3	
2	
9	
8	
4	
1	
3	
4	
1	
3	
4	
7	
3	
1	
3	
5	
3	
5	
3	
4	
4	
4	
3	
1	
2	
4	
2	
3	
2	
2	
1	
0	
10	
5	
3	
6	
5	
1	
4	
2	
4	
2	
3	
1	
4	
2	
1	
2	
2	
4	
2	
3	
2	
2	
3	
4	
3	
2	
1	
5	
2	
4	
2	
2	
3	
1	
3	
3	
7	
2	
5	
5	
5	
1	
4	
3	
3	
1	
3	
4	
3	
3	
2	
2	
2	
4	
3	
0	
2	
4	
1	
1	
3	
5	
3	
2	
5	
4	
6	
2	
2	
5	
5	
4	
2	
3	
1	
1	
5	
2	
3	
1	
6	
0	
2	
0	
4	
3	
4	
1	
3	
2	
4	
6	
1	
2	
3	
7	
2	
2	
2	
2	
2	
3	
4	
2	
5	
0	
4	
6	
2	
0	
5	
3	
3	
3	
4	
2	
4	
3	
0	
3	
3	
8	
5	
2	
6	
1	
4	
0	
3	
1	
1	
1	
2	
9	
1	
3	
1	
2	
4	
4	
3	
1	
2	
7	
1	
1	
2	
1	
1	
2	
2	
2	
2	
4	
5	
5	
1	
3	
4	
11	
4	
2	
2	
1	
3	
1	
2	
3	
2	
3	
1	
3	
2	
0	
0	
5	
3	
0	
3	
6	
3	
5	
4	
4	
4	
3	
3	
0	
2	
1	
3	
5	
3	
2	
1	
1	
6	
4	
3	
3	
2	
5	
1	
1	
5	
0	
3	
3	
5	
4	
5	
1	
3	
3	
5	
5	
5	
2	
2	
2	
1	
2	
3	
8	
3	
1	
0	
6	
1	
1	
3	
5	
5	
0	
1	
0	
1	
1	
1	
5	
2	
5	
3	
4	
4	
0	
4	
2	
2	
3	
4	
3	
4	
4	
2	
5	
3	
1	
3	
1	
4	
2	
2	
2	
1	
4	
4	
2	
2	
7	
7	
3	
5	
4	
4	
3	
5	
7	
4	
4	
2	
2	
1	
2	
5	
2	
1	
5	
4	
0	
2	
3	
2	
3	
4	
4	
3	
5	
6	
2	
7	
4	
3	
5	
5	
5	
3	
2	
3	
7	
4	
6	
5	
3	
3	
1	
5	
3	
1	
7	
6	
2	
1	
3	
4	
2	
6	
3	
2	
1	
2	
2	
1	
7	
2	
2	
2	
2	
2	
2	
4	
5	
4	
0	
3	
0	
1	
2	
3	
3	
6	
2	
3	
4	
4	
3	
2	
4	
1	
5	
3	
1	
2	
1	
2	
3	
3	
8	
4	
1	
2	
1	
4	
4	
2	
0	
0	
0	
1	
2	
3	
2	
2	
0	
2	
2	
4	
4	
3	
3	
2	
0	
2	
2	
1	
1	
1	
3	
0	
3	
2	
1	
2	
6	
1	
3	
4	
1	
4	
1	
9	
1	
2	
8	
2	
1	
0	
1	
5	
1	
4	
3	
1	
3	
1	
3	
2	
2	
5	
9	
1	
2	
5	
2	
2	
0	
0	
3	
0	
1	
3	
5	
3	
2	
5	
3	
4	
4	
2	
3	
2	
0	
9	
3	
2	
2	
1	
4	
4	
1	
3	
4	
6	
2	
0	
1	
3	
1	
1	
2	
1	
1	
2	
1	
2	
2	
1	
3	
1	
4	
3	
3	
4	
0	
2	
3	
2	
5	
2	
0	
2	
3	
2	
2	
2	
3	
0	
2	
5	
3	
2	
1	
1	
3	
0	
4	
3	
2	
7	
3	
0	
4	
2	
4	
1	
2	
5	
2	
6	
5	
4	
2	
3	
2	
2	
2	
1	
4	
4	
6	
5	
1	
2	
5	
4	
2	
3	
2	
1	
3	
2	
1	
2	
3	
2	
0	
1	
0	
4	
3	
3	
1	
5	
5	
1	
1	
1	
2	
5	
4	
1	
5	
7	
6	
7	
0	
2	
5	
9	
1	
1	
5	
3	
2	
0	
5	
2	
2	
0	
3	
1	
7	
0	
5	
1	
2	
3	
1	
3	
2	
4	
3	
3	
3	
2	
3	
0	
2	
2	
2	
5	
1	
5	
0	
3	
1	
2	
3	
1	
3	
3	
2	
2	
5	
1	
3	
3	
4	
9	
3	
1	
1	
3	
4	
4	
4	
4	
2	
1	
1	
2	
2	
3	
3	
4	
5	
3	
2	
2	
1	
1	
2	
0	
2	
2	
1	
2	
4	
4	
3	
1	
3	
1	
2	
1	
2	
4	
6	
6	
3	
3	
5	
3	
2	
5	
0	
4	
3	
2	
3	
0	
2	
2	
2	
2	
5	
3	
4	
2	
4	
0	
2	
2	
3	
4	
2	
4	
2	
3	
5	
2	
1	
1	
3	
4	
1	
6	
1	
1	
3	
1	
2	
1	
2	
1	
5	
4	
6	
2	
4	
4	
1	
2	
3	
0	
3	
4	
1	
3	
3	
3	
2	
3	
3	
1	
3	
7	
4	
2	
2	
1	
3	
2	
4	
3	
3	
2	
3	
4	
4	
5	
3	
5	
5	
2	
0	
2	
2	
1	
4	
1	
3	
4	
3	
3	
2	
2	
1	
6	
2	
4	
5	
5	
1	
3	
2	
1	
8	
4	
6	
3	
1	
1	
2	
4	
1	
3	
3	
3	
2	
1	
3	
5	
3	
1	
4	
4	
2	
5	
3	
1	
3	
3	
2	
1	
2	
2	
3	
3	
3	
1	
4	
2	
3	
2	
6	
7	
3	
2	
2	
2	
1	
1	
1	
6	
3	
2	
3	
2	
2	
5	
1	
0	
1	
3	
2	
9	
3	
3	
3	
8	
2	
1	
3	
5	
4	
3	
3	
3	
3	
1	
2	
4	
0	
7	
5	
4	
1	
1	
4	
1	
3	
0	
1	
2	
2	
4	
1	
1	
2	
1	
3	
0	
1	
3	
6	
1	
2	
0	
3	
3	
2	
3	
3	
2	
2	
4	
4	
1	
2	
3	
2	
2	
1	
2	
2	
0	
2	
4	
2	
2	
1	
1	
4	
2	
2	
3	
2	
5	
0	
0	
3	
2	
3	
2	
2	
3	
4	
5	
2	
0	
1	
0	
3	
2	
1	
0	
4	
3	
2	
2	
5	
5	
3	
0	
1	
4	
0	
0	
0	
0	
0	
0	
0	
0	
0	
0	
0	
0	
0	
0	
0	
0	
0	
0	
0	
0	
