#PicoHarp 300  Histogram Data			03/13/2023 12:35:38 PM
#channels per curve
7813
#display curve no.
0	
#memory block no.
0	
#ns/channel
0.1280	
#counts
4	
1	
3	
0	
2	
1	
1	
2	
2	
2	
0	
1	
3	
1	
1	
1	
2	
2	
5	
3	
2	
1	
4	
4	
1	
1	
2	
1	
3	
2	
1	
0	
4	
1	
0	
2	
1	
1	
2	
1	
5	
0	
1	
1	
5	
1	
3	
1	
1	
0	
0	
2	
4	
0	
0	
5	
2	
3	
2	
3	
5	
1	
2	
0	
1	
2	
1	
2	
2	
2	
5	
2	
1	
0	
3	
4	
1	
2	
3	
2	
2	
5	
6	
2	
2	
2	
0	
3	
2	
2	
2	
6	
1	
2	
6	
2	
4	
1	
2	
2	
4	
0	
3	
0	
0	
0	
3	
1	
1	
2	
1	
2	
2	
3	
5	
0	
2	
3	
0	
1	
0	
0	
0	
1	
3	
2	
4	
3	
0	
0	
3	
1	
1	
1	
1	
0	
3	
2	
2	
0	
0	
0	
2	
0	
0	
3	
1	
3	
3	
3	
1	
3	
0	
2	
1	
1	
1	
0	
4	
3	
1	
2	
1	
3	
2	
3	
0	
1	
1	
1	
1	
1	
3	
4	
1	
3	
2	
0	
1	
2	
1	
5	
1	
4	
1	
3	
3	
0	
2	
0	
1	
3	
2	
4	
2	
2	
1	
0	
2	
1	
1	
3	
0	
2	
1	
4	
4	
2	
4	
3	
2	
3	
3	
3	
2	
1	
1	
3	
2	
4	
1	
0	
0	
2	
1	
4	
2	
0	
1	
0	
1	
2	
1	
0	
3	
3	
1	
5	
11	
19	
31	
41	
77	
147	
255	
425	
580	
733	
824	
962	
952	
993	
1000	
946	
941	
931	
905	
870	
831	
824	
805	
812	
773	
751	
750	
703	
748	
692	
704	
648	
654	
638	
655	
617	
624	
576	
579	
553	
570	
557	
573	
503	
495	
469	
480	
441	
486	
448	
434	
403	
420	
385	
434	
377	
394	
415	
359	
381	
401	
399	
356	
329	
325	
334	
339	
323	
329	
306	
325	
308	
296	
292	
273	
281	
283	
293	
255	
256	
269	
237	
251	
215	
219	
218	
240	
230	
237	
200	
206	
182	
190	
176	
205	
192	
183	
178	
167	
189	
187	
168	
205	
178	
188	
165	
191	
167	
172	
182	
158	
167	
173	
156	
144	
146	
154	
147	
135	
143	
128	
154	
128	
131	
119	
126	
144	
123	
106	
128	
114	
113	
113	
116	
98	
117	
137	
111	
118	
100	
111	
108	
94	
108	
112	
105	
77	
96	
93	
109	
103	
90	
111	
86	
91	
96	
97	
99	
102	
86	
88	
97	
71	
75	
73	
84	
69	
82	
68	
72	
56	
81	
61	
82	
59	
65	
71	
70	
65	
66	
67	
61	
70	
78	
50	
56	
62	
69	
65	
63	
47	
57	
60	
67	
55	
63	
49	
71	
63	
59	
64	
53	
57	
47	
50	
56	
57	
44	
44	
59	
42	
66	
34	
50	
42	
46	
41	
43	
58	
39	
36	
59	
34	
39	
44	
41	
35	
39	
45	
44	
39	
30	
45	
34	
48	
47	
36	
53	
31	
37	
40	
25	
37	
44	
31	
35	
30	
42	
43	
29	
46	
36	
48	
42	
32	
39	
27	
31	
51	
40	
29	
38	
31	
24	
35	
36	
29	
23	
33	
31	
28	
32	
22	
23	
22	
35	
29	
37	
24	
36	
33	
38	
33	
32	
27	
30	
30	
30	
32	
37	
17	
28	
28	
21	
21	
28	
18	
25	
28	
19	
22	
24	
30	
29	
24	
22	
18	
20	
20	
21	
21	
25	
18	
16	
31	
12	
13	
27	
14	
20	
28	
24	
19	
11	
21	
17	
24	
28	
17	
21	
14	
18	
23	
17	
15	
25	
16	
16	
20	
13	
17	
17	
21	
20	
19	
21	
12	
22	
19	
15	
15	
12	
24	
15	
14	
19	
15	
18	
23	
12	
15	
14	
17	
14	
24	
21	
18	
9	
13	
14	
11	
17	
16	
20	
19	
17	
16	
17	
15	
13	
11	
16	
18	
9	
21	
23	
9	
18	
12	
17	
13	
11	
17	
12	
16	
18	
12	
23	
15	
19	
12	
19	
15	
11	
9	
11	
16	
13	
20	
14	
4	
8	
18	
15	
16	
14	
15	
12	
19	
18	
15	
6	
13	
12	
18	
8	
18	
12	
10	
9	
13	
11	
17	
13	
14	
12	
15	
13	
9	
14	
12	
13	
11	
11	
9	
8	
10	
11	
14	
12	
11	
14	
14	
5	
10	
6	
12	
13	
10	
10	
11	
8	
11	
15	
12	
13	
6	
16	
9	
14	
13	
21	
14	
14	
12	
16	
12	
13	
12	
18	
6	
13	
12	
13	
10	
7	
9	
6	
6	
9	
13	
13	
12	
10	
10	
11	
12	
11	
9	
11	
12	
7	
8	
7	
6	
10	
7	
14	
11	
7	
10	
7	
12	
13	
2	
14	
5	
10	
10	
8	
11	
6	
7	
6	
15	
9	
10	
6	
7	
8	
7	
10	
11	
6	
13	
6	
8	
11	
8	
8	
9	
9	
6	
5	
6	
9	
7	
8	
7	
12	
4	
7	
11	
5	
10	
9	
12	
5	
9	
8	
4	
8	
12	
10	
16	
13	
9	
5	
2	
9	
10	
3	
7	
5	
14	
6	
13	
9	
6	
9	
10	
7	
2	
8	
9	
3	
8	
9	
4	
8	
6	
14	
6	
8	
8	
10	
10	
6	
5	
7	
10	
5	
8	
4	
7	
4	
4	
13	
10	
4	
4	
7	
5	
5	
6	
7	
8	
4	
8	
4	
5	
5	
5	
7	
4	
6	
5	
4	
0	
6	
6	
4	
6	
9	
8	
7	
10	
5	
5	
4	
8	
3	
7	
7	
2	
9	
8	
7	
6	
6	
7	
7	
5	
4	
4	
5	
5	
5	
4	
5	
4	
7	
7	
10	
3	
6	
4	
5	
5	
12	
2	
6	
11	
10	
6	
7	
3	
2	
7	
6	
6	
8	
12	
6	
7	
7	
3	
5	
5	
3	
6	
6	
4	
4	
3	
13	
4	
4	
9	
5	
3	
7	
5	
6	
5	
9	
5	
8	
3	
6	
4	
7	
6	
4	
5	
3	
10	
10	
3	
7	
5	
4	
7	
6	
5	
3	
3	
8	
4	
5	
7	
2	
6	
7	
3	
5	
7	
7	
7	
3	
3	
5	
4	
4	
4	
3	
4	
5	
8	
5	
10	
3	
4	
3	
6	
7	
10	
4	
5	
4	
5	
4	
8	
5	
6	
6	
7	
3	
6	
3	
4	
3	
7	
9	
2	
5	
5	
4	
7	
3	
3	
6	
5	
3	
4	
7	
3	
5	
9	
10	
8	
4	
5	
4	
7	
2	
6	
7	
4	
4	
5	
9	
3	
5	
5	
6	
3	
5	
5	
4	
5	
5	
5	
1	
7	
3	
6	
7	
4	
8	
5	
5	
7	
6	
3	
6	
7	
6	
6	
4	
5	
3	
3	
5	
2	
3	
9	
6	
6	
7	
6	
10	
6	
6	
6	
5	
7	
4	
8	
5	
5	
7	
4	
5	
3	
4	
2	
5	
2	
4	
6	
3	
5	
6	
5	
7	
6	
5	
3	
5	
8	
1	
5	
1	
2	
2	
5	
8	
2	
8	
3	
3	
4	
2	
6	
4	
2	
5	
5	
5	
7	
7	
7	
4	
6	
5	
8	
5	
6	
1	
3	
11	
6	
7	
2	
4	
2	
5	
5	
3	
5	
7	
5	
7	
4	
3	
4	
8	
4	
5	
4	
9	
5	
4	
1	
7	
4	
3	
2	
5	
9	
3	
3	
9	
5	
8	
6	
7	
1	
2	
4	
4	
5	
2	
5	
3	
2	
2	
7	
3	
3	
5	
3	
4	
6	
4	
6	
4	
1	
6	
5	
4	
4	
1	
1	
4	
3	
2	
3	
3	
8	
5	
5	
4	
5	
9	
5	
8	
9	
2	
4	
6	
7	
7	
6	
0	
2	
2	
2	
2	
5	
4	
3	
3	
2	
4	
3	
2	
4	
5	
6	
3	
4	
2	
2	
4	
4	
6	
5	
3	
9	
4	
8	
1	
4	
3	
3	
4	
9	
6	
3	
4	
7	
2	
4	
4	
2	
4	
4	
7	
4	
8	
4	
4	
3	
6	
3	
2	
2	
2	
3	
6	
3	
2	
4	
6	
7	
6	
6	
1	
3	
1	
3	
5	
2	
1	
2	
4	
6	
9	
3	
1	
2	
4	
5	
1	
3	
6	
2	
4	
3	
3	
3	
5	
2	
3	
1	
2	
4	
5	
4	
3	
5	
4	
1	
4	
2	
3	
3	
3	
5	
3	
5	
5	
5	
4	
3	
4	
3	
3	
4	
7	
1	
1	
6	
2	
5	
2	
2	
9	
1	
1	
3	
1	
1	
1	
1	
3	
4	
3	
3	
2	
2	
5	
0	
5	
6	
3	
8	
3	
3	
3	
1	
1	
1	
4	
4	
4	
3	
4	
7	
2	
5	
6	
3	
4	
2	
4	
2	
6	
5	
1	
3	
2	
3	
2	
3	
5	
9	
1	
2	
4	
3	
4	
0	
2	
2	
0	
4	
5	
5	
2	
5	
3	
2	
5	
2	
2	
2	
2	
1	
1	
4	
2	
3	
1	
2	
3	
5	
3	
0	
3	
3	
1	
3	
0	
3	
4	
3	
3	
3	
4	
1	
3	
3	
1	
2	
1	
1	
2	
0	
3	
3	
5	
3	
3	
2	
5	
6	
5	
6	
2	
6	
3	
11	
6	
4	
6	
3	
1	
8	
3	
2	
2	
4	
1	
3	
4	
3	
2	
3	
2	
1	
7	
2	
5	
7	
3	
5	
3	
1	
4	
3	
2	
1	
7	
2	
3	
3	
1	
4	
6	
7	
6	
4	
4	
4	
5	
2	
2	
4	
6	
6	
3	
5	
4	
5	
3	
5	
5	
2	
5	
5	
4	
1	
2	
1	
1	
4	
4	
2	
2	
4	
1	
4	
1	
2	
3	
2	
1	
3	
7	
6	
5	
7	
3	
5	
3	
1	
7	
3	
4	
3	
4	
8	
2	
2	
4	
2	
3	
1	
8	
4	
3	
0	
1	
3	
4	
3	
1	
1	
2	
5	
2	
2	
3	
3	
3	
2	
5	
3	
1	
2	
4	
4	
2	
4	
2	
2	
4	
4	
5	
4	
1	
2	
1	
5	
4	
4	
4	
2	
3	
4	
2	
1	
2	
4	
2	
2	
3	
6	
4	
8	
0	
4	
5	
4	
1	
0	
1	
3	
6	
3	
0	
5	
1	
1	
4	
2	
3	
2	
0	
2	
4	
2	
6	
3	
2	
1	
2	
4	
4	
5	
4	
4	
2	
2	
4	
2	
7	
4	
3	
4	
5	
1	
2	
2	
2	
1	
1	
3	
5	
2	
2	
4	
3	
3	
6	
0	
2	
3	
4	
1	
0	
1	
4	
2	
5	
3	
0	
0	
0	
2	
2	
8	
3	
2	
4	
1	
3	
2	
6	
0	
3	
3	
3	
4	
2	
4	
3	
1	
1	
1	
1	
2	
5	
3	
2	
3	
3	
5	
5	
5	
1	
0	
3	
2	
1	
2	
4	
4	
1	
3	
1	
2	
6	
2	
8	
3	
0	
4	
2	
5	
1	
7	
0	
2	
2	
4	
3	
3	
1	
3	
1	
0	
3	
7	
0	
2	
0	
0	
2	
4	
6	
3	
5	
3	
2	
1	
4	
3	
1	
1	
1	
0	
1	
2	
2	
4	
4	
6	
2	
4	
3	
2	
6	
1	
6	
1	
3	
3	
3	
3	
3	
2	
1	
3	
1	
2	
1	
2	
1	
2	
3	
2	
7	
1	
3	
1	
3	
4	
4	
2	
3	
1	
2	
2	
4	
1	
5	
2	
2	
0	
4	
2	
1	
1	
3	
3	
0	
3	
3	
6	
1	
5	
1	
1	
0	
2	
5	
1	
4	
3	
1	
0	
5	
3	
0	
0	
4	
0	
2	
2	
2	
3	
3	
0	
3	
2	
4	
4	
2	
3	
1	
2	
3	
2	
2	
2	
2	
3	
3	
3	
1	
3	
4	
2	
1	
1	
1	
4	
3	
4	
6	
2	
4	
3	
4	
3	
3	
4	
3	
0	
1	
4	
5	
4	
0	
1	
4	
5	
5	
2	
2	
1	
1	
2	
2	
1	
2	
2	
2	
1	
5	
4	
2	
2	
0	
4	
3	
3	
5	
3	
1	
2	
1	
2	
3	
4	
0	
2	
0	
3	
5	
4	
3	
5	
3	
3	
2	
1	
0	
4	
2	
3	
2	
1	
2	
4	
1	
4	
4	
1	
1	
4	
1	
4	
4	
6	
7	
4	
2	
4	
4	
5	
3	
4	
2	
2	
5	
5	
1	
3	
3	
4	
3	
1	
1	
4	
2	
2	
2	
3	
2	
0	
3	
3	
3	
1	
1	
3	
4	
2	
1	
4	
1	
3	
3	
2	
2	
1	
1	
5	
2	
2	
1	
5	
6	
2	
1	
4	
1	
3	
1	
2	
0	
3	
0	
4	
3	
1	
4	
3	
4	
0	
1	
3	
3	
2	
0	
3	
3	
4	
2	
2	
5	
1	
3	
5	
3	
2	
4	
2	
3	
1	
4	
1	
5	
1	
3	
3	
2	
2	
1	
2	
2	
2	
3	
6	
5	
1	
2	
2	
1	
2	
1	
3	
3	
0	
4	
1	
2	
4	
5	
2	
5	
2	
1	
3	
1	
0	
2	
4	
4	
2	
4	
1	
2	
2	
2	
1	
2	
1	
1	
3	
3	
1	
5	
3	
3	
4	
2	
3	
4	
3	
2	
4	
4	
0	
3	
1	
4	
1	
6	
0	
0	
2	
4	
3	
1	
1	
1	
2	
4	
0	
0	
2	
3	
6	
4	
0	
2	
1	
2	
2	
2	
1	
2	
2	
4	
3	
0	
1	
5	
0	
4	
3	
3	
4	
1	
5	
0	
3	
0	
1	
0	
3	
4	
2	
1	
1	
1	
2	
2	
1	
1	
2	
2	
2	
6	
2	
2	
4	
4	
3	
2	
2	
4	
3	
5	
1	
2	
2	
1	
1	
1	
4	
1	
4	
0	
7	
6	
5	
6	
2	
1	
1	
0	
2	
1	
1	
1	
4	
3	
2	
3	
4	
2	
3	
3	
2	
1	
3	
1	
0	
4	
0	
3	
4	
4	
5	
1	
1	
1	
3	
5	
4	
5	
1	
1	
2	
1	
1	
0	
3	
2	
3	
2	
4	
2	
2	
4	
4	
3	
1	
2	
2	
1	
3	
2	
2	
1	
1	
3	
5	
4	
0	
3	
1	
2	
2	
1	
3	
3	
1	
4	
3	
2	
3	
4	
2	
7	
4	
5	
1	
3	
0	
2	
1	
6	
2	
3	
1	
3	
0	
0	
3	
2	
4	
4	
4	
3	
2	
4	
0	
2	
1	
6	
1	
1	
2	
0	
2	
2	
2	
4	
3	
3	
2	
3	
2	
4	
3	
3	
2	
2	
0	
1	
2	
3	
5	
0	
3	
3	
0	
2	
0	
1	
3	
1	
1	
0	
1	
3	
2	
3	
1	
1	
4	
3	
3	
2	
4	
3	
1	
2	
3	
1	
4	
3	
1	
4	
3	
3	
2	
1	
2	
4	
7	
2	
0	
3	
3	
2	
2	
1	
3	
3	
3	
1	
0	
2	
1	
6	
1	
5	
1	
0	
1	
3	
1	
1	
1	
5	
1	
1	
0	
2	
5	
5	
1	
2	
0	
0	
1	
2	
3	
0	
1	
5	
1	
3	
0	
3	
3	
3	
2	
5	
4	
0	
1	
2	
2	
2	
4	
3	
2	
2	
4	
0	
6	
4	
2	
2	
3	
3	
4	
0	
1	
3	
4	
2	
1	
0	
2	
4	
4	
2	
1	
3	
1	
5	
1	
1	
2	
1	
0	
1	
3	
1	
5	
1	
4	
5	
6	
0	
1	
2	
5	
5	
2	
6	
4	
3	
5	
4	
0	
4	
1	
2	
1	
3	
3	
2	
5	
1	
1	
1	
3	
0	
1	
2	
1	
2	
2	
4	
4	
2	
2	
4	
1	
5	
3	
0	
0	
4	
1	
3	
1	
3	
4	
1	
3	
2	
2	
4	
2	
1	
2	
4	
1	
2	
1	
2	
3	
0	
3	
1	
2	
1	
4	
2	
3	
1	
0	
1	
3	
0	
2	
7	
1	
1	
1	
2	
3	
3	
2	
3	
3	
1	
6	
2	
2	
3	
2	
1	
0	
4	
2	
2	
2	
5	
4	
1	
2	
5	
4	
0	
1	
1	
1	
1	
1	
4	
1	
3	
2	
1	
1	
2	
4	
4	
2	
3	
4	
3	
3	
0	
3	
0	
2	
7	
4	
1	
1	
2	
4	
2	
3	
3	
0	
5	
3	
3	
4	
5	
6	
0	
1	
3	
4	
1	
3	
3	
2	
0	
3	
2	
4	
4	
1	
4	
1	
1	
5	
1	
2	
2	
5	
3	
1	
3	
1	
0	
2	
4	
0	
4	
3	
6	
2	
1	
2	
1	
1	
1	
1	
1	
1	
4	
2	
1	
4	
4	
0	
2	
4	
1	
2	
2	
0	
5	
3	
3	
5	
1	
3	
0	
2	
2	
1	
3	
0	
4	
1	
3	
2	
0	
1	
0	
1	
1	
0	
5	
0	
2	
3	
1	
2	
3	
2	
2	
0	
6	
3	
5	
0	
1	
2	
2	
4	
1	
1	
2	
4	
1	
2	
1	
1	
1	
2	
0	
2	
4	
3	
3	
2	
5	
2	
1	
2	
1	
1	
1	
3	
2	
0	
3	
2	
1	
1	
0	
3	
0	
6	
5	
1	
1	
1	
2	
1	
5	
1	
4	
1	
2	
1	
3	
1	
2	
2	
1	
2	
0	
1	
1	
4	
2	
2	
3	
4	
1	
3	
3	
0	
1	
2	
3	
4	
2	
2	
6	
2	
2	
1	
4	
3	
2	
1	
1	
7	
3	
0	
3	
2	
3	
1	
1	
0	
2	
0	
1	
1	
0	
3	
2	
4	
1	
4	
1	
4	
5	
1	
2	
2	
5	
4	
3	
1	
1	
2	
4	
2	
2	
3	
4	
4	
4	
1	
1	
4	
1	
4	
1	
2	
3	
3	
2	
2	
2	
1	
1	
2	
1	
4	
2	
4	
2	
0	
2	
4	
3	
1	
2	
0	
2	
1	
1	
3	
2	
1	
0	
0	
3	
4	
5	
3	
4	
2	
2	
4	
1	
1	
5	
1	
3	
0	
3	
3	
3	
3	
3	
5	
2	
3	
1	
3	
1	
3	
3	
2	
0	
3	
0	
3	
2	
1	
0	
3	
2	
3	
2	
2	
1	
2	
4	
3	
3	
5	
3	
0	
3	
2	
2	
0	
3	
1	
2	
4	
3	
2	
2	
1	
2	
3	
0	
1	
2	
3	
3	
2	
3	
1	
3	
1	
4	
2	
1	
0	
0	
0	
2	
2	
0	
0	
2	
4	
2	
1	
3	
2	
0	
2	
2	
4	
3	
3	
4	
2	
3	
2	
2	
2	
0	
2	
1	
2	
1	
2	
4	
3	
1	
1	
5	
2	
1	
0	
2	
0	
3	
2	
3	
2	
2	
1	
4	
3	
1	
3	
4	
1	
3	
2	
5	
1	
5	
1	
1	
3	
2	
2	
1	
2	
2	
3	
1	
2	
2	
2	
0	
1	
0	
2	
2	
0	
3	
1	
3	
1	
1	
1	
3	
1	
5	
1	
3	
0	
4	
3	
2	
3	
0	
5	
1	
8	
3	
2	
1	
1	
1	
5	
0	
1	
4	
2	
1	
0	
2	
2	
1	
3	
0	
1	
1	
1	
0	
1	
3	
5	
2	
2	
1	
1	
1	
3	
2	
4	
3	
1	
1	
3	
7	
1	
1	
1	
0	
3	
3	
1	
2	
1	
2	
1	
4	
1	
1	
0	
6	
2	
1	
0	
4	
3	
5	
1	
1	
5	
0	
1	
2	
3	
3	
3	
0	
3	
2	
3	
4	
1	
4	
1	
1	
3	
5	
0	
0	
3	
2	
1	
2	
0	
0	
3	
3	
1	
2	
2	
1	
1	
4	
2	
0	
3	
5	
4	
2	
0	
5	
0	
1	
2	
4	
2	
1	
4	
1	
0	
1	
4	
1	
4	
3	
7	
5	
3	
3	
2	
0	
2	
0	
2	
2	
0	
1	
3	
3	
3	
1	
0	
2	
1	
2	
3	
2	
4	
3	
0	
1	
2	
1	
1	
3	
2	
2	
5	
3	
2	
0	
3	
1	
1	
2	
4	
2	
4	
5	
0	
3	
2	
1	
0	
0	
3	
1	
1	
3	
3	
2	
0	
3	
5	
1	
2	
0	
2	
2	
4	
4	
3	
1	
1	
3	
0	
1	
5	
2	
1	
3	
3	
1	
2	
1	
1	
0	
1	
2	
3	
1	
2	
3	
0	
2	
2	
0	
2	
2	
0	
4	
2	
1	
0	
0	
5	
3	
0	
2	
0	
2	
0	
1	
1	
2	
0	
1	
5	
3	
2	
3	
1	
2	
1	
1	
0	
2	
3	
2	
3	
1	
0	
1	
1	
0	
1	
2	
1	
1	
2	
1	
0	
2	
4	
1	
2	
2	
3	
3	
2	
4	
0	
0	
2	
0	
4	
4	
1	
3	
0	
0	
1	
2	
1	
4	
6	
3	
4	
2	
4	
0	
0	
0	
6	
4	
3	
3	
1	
2	
5	
1	
5	
0	
2	
3	
0	
1	
3	
4	
0	
3	
0	
3	
2	
4	
3	
1	
1	
1	
1	
1	
2	
0	
2	
1	
2	
3	
3	
2	
1	
4	
1	
3	
2	
1	
3	
1	
4	
2	
5	
3	
0	
2	
1	
0	
0	
0	
2	
0	
2	
3	
1	
1	
1	
1	
0	
2	
3	
0	
0	
1	
1	
2	
4	
2	
3	
1	
4	
4	
5	
3	
1	
1	
2	
1	
1	
2	
3	
2	
3	
1	
1	
2	
4	
0	
3	
0	
1	
2	
2	
0	
3	
1	
1	
0	
2	
0	
1	
4	
1	
4	
2	
1	
4	
4	
1	
1	
2	
5	
1	
2	
3	
1	
2	
3	
2	
0	
3	
4	
1	
3	
3	
2	
0	
4	
2	
1	
2	
2	
0	
1	
2	
3	
2	
3	
1	
2	
3	
2	
0	
5	
0	
1	
1	
2	
0	
2	
2	
1	
3	
1	
3	
4	
2	
2	
1	
0	
4	
2	
0	
2	
5	
1	
1	
0	
5	
2	
3	
1	
3	
0	
0	
0	
2	
3	
4	
3	
1	
2	
1	
2	
1	
3	
0	
1	
3	
3	
3	
3	
4	
1	
0	
2	
3	
4	
2	
0	
1	
1	
0	
4	
2	
2	
1	
2	
2	
0	
2	
5	
2	
5	
3	
2	
1	
3	
2	
1	
1	
3	
2	
2	
2	
3	
2	
0	
1	
3	
2	
3	
2	
2	
2	
2	
2	
2	
2	
3	
1	
3	
3	
4	
1	
2	
1	
1	
1	
2	
1	
2	
3	
3	
1	
3	
3	
1	
1	
2	
2	
2	
1	
2	
2	
2	
0	
0	
1	
3	
2	
5	
1	
2	
2	
2	
3	
0	
4	
0	
1	
0	
0	
1	
4	
0	
0	
4	
0	
4	
2	
3	
1	
0	
3	
2	
1	
3	
0	
2	
7	
4	
4	
1	
1	
4	
3	
2	
1	
3	
1	
1	
2	
1	
4	
2	
2	
1	
1	
4	
1	
0	
0	
1	
2	
3	
3	
3	
4	
1	
2	
2	
3	
3	
3	
3	
1	
2	
2	
1	
2	
2	
4	
1	
1	
0	
2	
3	
1	
2	
3	
3	
4	
1	
4	
3	
2	
0	
1	
3	
1	
1	
1	
2	
2	
3	
0	
5	
3	
3	
1	
4	
1	
1	
5	
1	
1	
1	
4	
2	
2	
2	
1	
0	
2	
3	
3	
2	
3	
1	
0	
1	
0	
1	
1	
2	
2	
2	
0	
2	
1	
2	
1	
1	
3	
2	
2	
0	
2	
1	
0	
0	
1	
1	
3	
3	
2	
4	
5	
1	
1	
2	
1	
5	
2	
3	
1	
0	
3	
1	
1	
0	
3	
1	
0	
3	
3	
1	
2	
4	
2	
5	
4	
2	
0	
3	
3	
2	
5	
1	
2	
2	
6	
1	
4	
2	
3	
3	
1	
4	
1	
0	
5	
1	
0	
1	
1	
2	
0	
2	
2	
3	
1	
1	
2	
3	
1	
2	
6	
4	
3	
1	
1	
1	
3	
1	
2	
2	
3	
6	
1	
1	
2	
2	
0	
2	
3	
2	
3	
2	
3	
1	
2	
0	
2	
4	
4	
0	
0	
1	
2	
1	
0	
0	
1	
1	
4	
6	
5	
4	
4	
4	
1	
4	
1	
3	
3	
0	
0	
1	
2	
1	
1	
2	
3	
3	
3	
2	
3	
2	
3	
3	
1	
1	
1	
2	
1	
1	
3	
1	
4	
4	
2	
1	
2	
2	
5	
4	
1	
2	
0	
0	
0	
5	
0	
3	
2	
2	
1	
2	
5	
1	
2	
1	
3	
2	
2	
1	
1	
2	
2	
1	
5	
1	
3	
0	
2	
3	
0	
1	
1	
2	
2	
0	
3	
0	
3	
2	
1	
3	
3	
4	
2	
5	
1	
1	
1	
2	
1	
3	
1	
3	
1	
3	
0	
2	
2	
1	
4	
0	
4	
3	
1	
3	
0	
5	
1	
4	
3	
0	
1	
3	
4	
2	
1	
2	
0	
2	
0	
2	
2	
2	
3	
0	
4	
1	
1	
2	
0	
5	
3	
1	
2	
1	
1	
0	
1	
3	
1	
4	
0	
2	
2	
2	
5	
2	
1	
2	
2	
6	
3	
1	
1	
1	
5	
3	
1	
1	
2	
0	
4	
2	
5	
1	
4	
2	
2	
3	
2	
0	
0	
5	
2	
6	
3	
1	
1	
5	
0	
2	
2	
6	
1	
6	
4	
3	
2	
1	
4	
0	
3	
3	
1	
1	
1	
2	
2	
1	
1	
3	
2	
2	
1	
1	
2	
3	
2	
1	
3	
2	
2	
1	
1	
1	
0	
1	
1	
4	
3	
0	
1	
2	
1	
2	
1	
2	
1	
2	
1	
0	
2	
4	
4	
0	
2	
0	
1	
0	
1	
3	
2	
2	
3	
3	
3	
2	
2	
1	
2	
2	
2	
2	
1	
0	
0	
1	
1	
2	
2	
2	
3	
0	
2	
3	
2	
2	
3	
0	
0	
0	
2	
2	
4	
2	
1	
1	
1	
0	
1	
1	
3	
2	
3	
2	
0	
0	
5	
3	
3	
1	
2	
0	
3	
2	
1	
3	
1	
0	
0	
3	
2	
2	
1	
2	
1	
4	
2	
5	
1	
1	
2	
3	
1	
2	
2	
0	
2	
5	
3	
1	
2	
2	
3	
0	
7	
1	
1	
2	
2	
3	
2	
2	
1	
3	
1	
0	
0	
6	
5	
3	
4	
0	
0	
0	
4	
3	
4	
2	
3	
2	
2	
4	
2	
1	
1	
3	
1	
1	
0	
2	
3	
1	
3	
4	
4	
3	
2	
2	
1	
1	
3	
2	
0	
2	
2	
2	
1	
0	
3	
1	
1	
1	
4	
1	
2	
2	
0	
1	
2	
3	
2	
0	
1	
3	
1	
1	
6	
2	
5	
0	
2	
0	
0	
3	
2	
4	
1	
2	
1	
2	
0	
3	
4	
1	
2	
4	
1	
0	
3	
4	
2	
1	
2	
1	
2	
2	
4	
3	
3	
1	
1	
0	
2	
3	
4	
6	
3	
2	
2	
3	
1	
1	
1	
2	
2	
0	
1	
2	
4	
1	
1	
2	
2	
1	
1	
1	
3	
3	
4	
2	
3	
1	
4	
5	
3	
3	
3	
3	
2	
3	
2	
1	
2	
1	
1	
3	
2	
2	
0	
1	
4	
1	
0	
1	
2	
5	
4	
2	
1	
3	
1	
5	
2	
0	
2	
1	
3	
0	
1	
2	
1	
1	
2	
1	
2	
1	
3	
2	
0	
3	
4	
3	
1	
1	
1	
1	
3	
4	
4	
3	
1	
1	
2	
1	
4	
3	
2	
2	
2	
2	
1	
2	
3	
3	
0	
1	
2	
1	
6	
3	
1	
1	
4	
1	
2	
2	
2	
1	
5	
2	
3	
4	
2	
5	
3	
2	
4	
2	
0	
2	
0	
2	
2	
1	
2	
4	
3	
0	
2	
0	
3	
6	
1	
1	
2	
2	
1	
3	
3	
1	
1	
2	
0	
0	
5	
2	
2	
2	
1	
5	
2	
3	
3	
0	
2	
5	
1	
1	
3	
2	
1	
3	
2	
1	
0	
2	
2	
2	
2	
0	
8	
2	
2	
0	
1	
1	
2	
0	
4	
2	
1	
1	
3	
1	
1	
5	
1	
2	
1	
1	
3	
2	
2	
1	
2	
5	
2	
2	
0	
2	
2	
0	
3	
2	
2	
2	
1	
3	
2	
3	
2	
1	
2	
2	
2	
4	
1	
2	
2	
1	
2	
2	
4	
0	
2	
2	
1	
0	
0	
0	
2	
4	
1	
2	
0	
3	
4	
2	
3	
2	
1	
4	
1	
2	
2	
3	
2	
1	
1	
3	
3	
2	
2	
2	
4	
1	
1	
2	
1	
0	
4	
1	
3	
1	
0	
4	
1	
0	
2	
3	
0	
2	
2	
2	
3	
4	
0	
6	
2	
3	
3	
3	
0	
0	
1	
4	
2	
0	
4	
0	
4	
4	
1	
0	
1	
1	
5	
1	
4	
2	
1	
2	
3	
2	
4	
1	
2	
1	
1	
3	
3	
1	
0	
0	
1	
1	
2	
3	
1	
0	
1	
1	
0	
3	
2	
0	
0	
4	
1	
2	
0	
0	
1	
0	
4	
0	
3	
4	
3	
1	
0	
0	
2	
1	
3	
2	
2	
1	
4	
2	
3	
0	
3	
0	
2	
3	
0	
1	
1	
2	
1	
4	
1	
1	
2	
5	
1	
2	
3	
6	
1	
2	
2	
4	
4	
1	
4	
2	
2	
4	
1	
2	
1	
0	
1	
3	
6	
1	
0	
2	
1	
1	
1	
2	
4	
0	
1	
0	
2	
1	
2	
3	
0	
0	
5	
2	
2	
0	
1	
1	
1	
4	
3	
1	
2	
1	
2	
0	
0	
2	
1	
2	
1	
2	
3	
3	
1	
4	
1	
4	
5	
2	
2	
2	
3	
5	
2	
0	
1	
2	
2	
4	
3	
3	
0	
5	
0	
3	
3	
1	
6	
1	
2	
0	
3	
1	
1	
0	
1	
1	
1	
2	
2	
5	
1	
1	
0	
2	
1	
2	
1	
2	
0	
2	
1	
2	
1	
2	
2	
2	
1	
0	
2	
3	
0	
4	
2	
0	
1	
2	
0	
2	
1	
0	
1	
0	
1	
2	
2	
3	
3	
2	
2	
2	
2	
1	
0	
2	
3	
2	
2	
1	
1	
2	
0	
2	
3	
1	
1	
2	
1	
2	
1	
3	
0	
3	
1	
2	
2	
1	
2	
3	
2	
2	
2	
2	
2	
1	
2	
2	
6	
1	
4	
1	
0	
4	
2	
1	
0	
3	
2	
0	
3	
0	
4	
2	
0	
2	
2	
0	
2	
1	
2	
3	
4	
2	
2	
3	
0	
1	
1	
1	
1	
1	
1	
3	
3	
1	
4	
2	
3	
1	
1	
0	
2	
4	
2	
1	
3	
1	
1	
2	
0	
2	
4	
5	
0	
1	
4	
0	
1	
1	
1	
2	
0	
1	
1	
1	
2	
2	
1	
4	
3	
2	
3	
4	
1	
3	
0	
2	
3	
1	
1	
0	
1	
5	
5	
5	
4	
1	
2	
1	
3	
0	
1	
3	
1	
1	
1	
0	
0	
4	
2	
1	
3	
1	
3	
3	
0	
0	
2	
0	
1	
4	
2	
1	
1	
0	
0	
1	
3	
3	
2	
0	
2	
1	
2	
1	
2	
3	
3	
2	
2	
1	
3	
4	
1	
2	
0	
2	
4	
2	
2	
0	
1	
1	
0	
3	
5	
2	
2	
3	
1	
2	
3	
2	
0	
0	
0	
3	
2	
5	
0	
3	
0	
0	
4	
3	
2	
2	
2	
1	
2	
1	
1	
2	
3	
0	
2	
2	
2	
2	
2	
3	
5	
0	
1	
2	
3	
2	
1	
1	
2	
1	
0	
3	
2	
0	
3	
3	
1	
3	
1	
2	
1	
2	
3	
3	
4	
1	
1	
3	
3	
1	
1	
5	
1	
2	
1	
0	
0	
2	
3	
2	
0	
2	
3	
0	
1	
1	
5	
1	
4	
3	
3	
2	
0	
2	
5	
3	
1	
1	
4	
1	
0	
3	
2	
0	
1	
2	
4	
3	
3	
1	
2	
3	
0	
8	
4	
1	
1	
2	
1	
2	
4	
1	
1	
0	
2	
0	
2	
5	
2	
1	
1	
0	
3	
1	
2	
0	
2	
4	
4	
5	
0	
1	
4	
5	
3	
1	
1	
1	
2	
3	
1	
3	
0	
1	
1	
2	
4	
2	
4	
0	
5	
0	
2	
0	
2	
2	
1	
2	
1	
1	
0	
1	
3	
2	
3	
2	
5	
2	
1	
3	
4	
1	
1	
1	
3	
1	
3	
2	
5	
0	
2	
1	
0	
1	
0	
1	
3	
3	
2	
1	
2	
2	
4	
2	
1	
3	
0	
3	
1	
3	
3	
4	
4	
3	
1	
2	
3	
3	
3	
4	
1	
2	
5	
5	
2	
1	
2	
0	
1	
1	
4	
2	
3	
0	
1	
4	
0	
1	
1	
0	
2	
2	
1	
2	
1	
1	
4	
0	
0	
1	
1	
1	
0	
1	
5	
0	
1	
3	
2	
4	
1	
2	
4	
1	
2	
3	
1	
6	
2	
1	
1	
2	
4	
3	
3	
3	
1	
2	
2	
2	
3	
2	
4	
2	
2	
2	
3	
3	
2	
3	
0	
2	
1	
3	
2	
2	
1	
1	
3	
0	
4	
3	
3	
2	
2	
0	
2	
2	
2	
6	
0	
1	
0	
0	
0	
4	
2	
1	
4	
1	
0	
0	
0	
2	
1	
3	
2	
3	
4	
1	
0	
1	
2	
2	
3	
2	
0	
5	
0	
1	
4	
1	
2	
1	
0	
1	
1	
4	
3	
1	
4	
5	
4	
0	
3	
5	
0	
1	
0	
4	
0	
2	
2	
0	
3	
1	
2	
3	
4	
0	
1	
1	
2	
1	
2	
3	
0	
2	
2	
0	
0	
0	
0	
0	
3	
2	
1	
2	
2	
4	
2	
3	
1	
3	
1	
2	
1	
0	
1	
2	
1	
1	
3	
5	
3	
5	
1	
1	
3	
0	
1	
3	
1	
1	
2	
4	
2	
2	
0	
0	
2	
2	
5	
1	
6	
2	
3	
6	
1	
2	
2	
0	
5	
4	
3	
2	
1	
0	
3	
3	
1	
1	
2	
0	
4	
4	
2	
2	
2	
0	
2	
1	
2	
3	
2	
3	
1	
0	
1	
1	
1	
2	
3	
2	
2	
1	
3	
2	
4	
0	
0	
5	
3	
1	
3	
2	
2	
0	
1	
3	
1	
0	
2	
0	
1	
3	
1	
1	
2	
3	
1	
1	
2	
3	
1	
2	
4	
0	
1	
0	
3	
4	
5	
4	
2	
3	
1	
1	
1	
2	
0	
3	
0	
3	
4	
3	
1	
4	
1	
0	
1	
0	
1	
1	
1	
1	
1	
2	
1	
3	
1	
0	
2	
3	
3	
1	
1	
3	
2	
1	
1	
2	
4	
2	
1	
3	
1	
1	
2	
0	
3	
1	
2	
1	
1	
3	
3	
2	
2	
1	
2	
2	
1	
4	
2	
1	
2	
1	
2	
3	
4	
2	
1	
2	
1	
1	
4	
2	
1	
3	
4	
2	
2	
3	
2	
4	
2	
3	
2	
1	
2	
4	
6	
0	
1	
2	
3	
1	
0	
1	
1	
2	
1	
3	
1	
0	
1	
3	
1	
0	
1	
3	
1	
3	
2	
2	
0	
4	
2	
4	
0	
3	
1	
1	
2	
2	
2	
0	
6	
2	
2	
3	
3	
2	
2	
1	
2	
1	
4	
1	
0	
3	
5	
1	
1	
4	
3	
3	
1	
1	
1	
1	
1	
1	
1	
1	
1	
2	
1	
7	
4	
2	
1	
2	
1	
1	
4	
1	
1	
5	
1	
3	
0	
1	
1	
3	
3	
2	
1	
4	
0	
1	
2	
1	
1	
1	
2	
2	
2	
2	
1	
2	
2	
2	
1	
3	
1	
3	
7	
4	
1	
0	
3	
2	
2	
2	
3	
1	
1	
4	
4	
1	
2	
2	
0	
1	
2	
2	
2	
2	
5	
2	
0	
8	
1	
4	
1	
1	
3	
2	
1	
2	
3	
1	
2	
3	
2	
6	
4	
1	
0	
1	
0	
2	
1	
0	
4	
0	
2	
1	
2	
3	
1	
1	
1	
3	
1	
2	
3	
2	
2	
0	
0	
2	
0	
2	
1	
0	
2	
2	
1	
1	
2	
3	
1	
5	
2	
0	
1	
4	
7	
3	
1	
2	
1	
3	
3	
3	
2	
5	
4	
1	
4	
2	
2	
3	
0	
6	
4	
1	
3	
3	
2	
4	
1	
0	
0	
3	
2	
3	
2	
1	
1	
3	
3	
2	
0	
2	
2	
0	
0	
0	
0	
3	
1	
0	
0	
4	
1	
0	
0	
1	
0	
0	
4	
1	
1	
1	
0	
1	
2	
2	
3	
3	
2	
2	
2	
3	
0	
3	
3	
1	
0	
2	
5	
2	
1	
4	
5	
1	
2	
0	
4	
1	
1	
0	
3	
3	
1	
3	
2	
2	
2	
4	
2	
2	
0	
1	
2	
1	
1	
0	
1	
1	
1	
3	
2	
3	
4	
3	
3	
4	
1	
2	
0	
0	
4	
2	
3	
2	
3	
4	
2	
0	
3	
1	
3	
0	
1	
0	
1	
1	
3	
1	
2	
0	
2	
1	
1	
2	
2	
3	
3	
4	
1	
2	
1	
1	
0	
1	
3	
3	
0	
2	
2	
4	
0	
8	
2	
2	
3	
2	
1	
1	
3	
1	
1	
6	
2	
4	
2	
3	
1	
4	
1	
1	
0	
2	
1	
4	
3	
3	
2	
0	
2	
0	
2	
1	
2	
3	
1	
3	
3	
1	
4	
2	
1	
0	
2	
0	
0	
1	
1	
2	
3	
3	
3	
1	
4	
1	
1	
2	
6	
5	
0	
0	
0	
1	
1	
4	
1	
3	
0	
0	
3	
1	
1	
1	
2	
1	
2	
1	
4	
1	
0	
2	
1	
2	
0	
1	
2	
4	
2	
0	
4	
2	
1	
1	
0	
2	
0	
2	
2	
3	
0	
2	
3	
4	
2	
1	
1	
4	
2	
0	
5	
1	
2	
1	
2	
0	
2	
2	
1	
1	
3	
2	
2	
1	
0	
2	
3	
2	
4	
2	
1	
2	
0	
0	
1	
1	
0	
0	
1	
0	
5	
2	
1	
2	
0	
3	
0	
2	
1	
1	
3	
2	
3	
1	
2	
2	
2	
1	
0	
2	
1	
1	
2	
1	
0	
1	
4	
0	
2	
4	
3	
3	
5	
0	
2	
2	
2	
2	
2	
3	
3	
4	
0	
1	
0	
4	
1	
4	
3	
3	
2	
3	
0	
1	
3	
2	
5	
1	
1	
2	
0	
2	
1	
1	
2	
1	
1	
1	
2	
2	
1	
3	
2	
2	
2	
3	
3	
3	
2	
4	
2	
1	
2	
1	
0	
3	
2	
3	
1	
4	
4	
3	
1	
2	
1	
1	
0	
5	
2	
0	
1	
3	
1	
2	
1	
2	
4	
2	
4	
1	
3	
1	
1	
4	
0	
0	
2	
2	
1	
2	
4	
1	
1	
1	
2	
3	
4	
2	
3	
1	
1	
1	
3	
2	
1	
2	
2	
1	
2	
3	
2	
1	
0	
2	
1	
2	
2	
4	
3	
3	
4	
1	
0	
2	
1	
3	
0	
0	
5	
2	
0	
0	
6	
1	
3	
2	
3	
1	
3	
3	
2	
0	
4	
3	
1	
2	
2	
1	
0	
0	
1	
3	
3	
1	
2	
2	
2	
1	
3	
0	
2	
3	
0	
5	
3	
1	
1	
3	
0	
3	
0	
3	
0	
1	
3	
1	
1	
3	
1	
7	
1	
2	
1	
1	
3	
3	
3	
2	
3	
0	
2	
5	
1	
2	
1	
1	
2	
3	
3	
3	
3	
4	
2	
1	
5	
0	
1	
3	
2	
4	
1	
4	
1	
3	
1	
1	
1	
1	
3	
3	
1	
2	
1	
4	
4	
1	
2	
1	
2	
0	
1	
0	
2	
2	
2	
2	
2	
0	
1	
0	
3	
1	
0	
4	
2	
1	
0	
0	
2	
3	
0	
2	
3	
4	
3	
0	
3	
7	
2	
3	
3	
5	
2	
0	
2	
3	
3	
2	
5	
3	
2	
1	
4	
2	
1	
0	
0	
1	
0	
0	
0	
3	
2	
6	
4	
4	
1	
0	
2	
2	
3	
2	
1	
3	
4	
4	
2	
2	
1	
3	
1	
2	
1	
3	
3	
0	
3	
3	
0	
1	
2	
1	
1	
2	
2	
3	
1	
3	
0	
3	
2	
2	
2	
1	
4	
0	
3	
0	
3	
2	
0	
1	
4	
0	
1	
0	
5	
5	
4	
5	
1	
1	
1	
2	
2	
0	
2	
1	
1	
1	
2	
2	
0	
1	
1	
4	
0	
2	
5	
2	
2	
2	
3	
3	
1	
2	
3	
4	
1	
1	
1	
2	
5	
1	
0	
2	
1	
3	
0	
1	
2	
3	
0	
2	
4	
1	
3	
1	
5	
2	
2	
5	
4	
3	
0	
1	
0	
1	
4	
1	
4	
3	
3	
1	
0	
2	
2	
3	
4	
1	
4	
1	
1	
0	
3	
2	
0	
3	
3	
3	
3	
3	
2	
2	
1	
2	
3	
0	
3	
1	
2	
3	
5	
0	
3	
2	
2	
2	
1	
1	
1	
2	
1	
3	
1	
3	
1	
0	
0	
5	
1	
2	
3	
4	
1	
1	
1	
4	
0	
3	
2	
4	
4	
4	
4	
1	
3	
1	
2	
2	
4	
2	
0	
2	
1	
3	
1	
2	
2	
2	
1	
2	
6	
3	
2	
1	
2	
3	
3	
2	
4	
3	
3	
1	
1	
0	
4	
1	
0	
0	
4	
1	
4	
1	
0	
5	
1	
2	
1	
2	
0	
1	
3	
1	
2	
1	
0	
5	
2	
2	
0	
1	
2	
2	
3	
4	
1	
2	
2	
2	
3	
1	
2	
3	
1	
2	
4	
4	
4	
1	
1	
5	
1	
3	
2	
1	
4	
0	
2	
4	
2	
1	
0	
2	
2	
1	
3	
1	
0	
1	
4	
3	
5	
1	
2	
0	
2	
1	
2	
2	
1	
1	
2	
5	
1	
1	
3	
2	
1	
1	
0	
2	
2	
2	
2	
0	
4	
2	
1	
1	
1	
1	
0	
1	
1	
0	
2	
0	
3	
4	
1	
4	
0	
3	
1	
1	
3	
1	
1	
0	
3	
4	
2	
2	
1	
3	
2	
0	
1	
1	
0	
2	
0	
2	
2	
3	
0	
3	
3	
5	
5	
3	
3	
3	
1	
3	
0	
1	
0	
6	
6	
4	
2	
1	
0	
1	
1	
2	
2	
1	
2	
0	
3	
1	
2	
1	
1	
1	
3	
0	
1	
2	
0	
0	
0	
3	
2	
3	
0	
0	
0	
1	
1	
1	
0	
6	
2	
3	
0	
0	
0	
2	
1	
2	
4	
2	
0	
2	
1	
4	
4	
2	
1	
1	
4	
2	
1	
1	
1	
2	
2	
3	
1	
1	
1	
3	
1	
1	
2	
3	
1	
3	
1	
2	
3	
2	
2	
2	
5	
0	
5	
1	
1	
3	
0	
0	
1	
2	
2	
1	
5	
3	
0	
0	
2	
3	
1	
4	
0	
1	
0	
1	
2	
2	
2	
2	
4	
1	
2	
2	
0	
2	
2	
2	
2	
6	
3	
4	
2	
3	
3	
1	
4	
3	
1	
1	
1	
3	
2	
1	
1	
1	
5	
2	
0	
3	
2	
2	
0	
4	
2	
0	
2	
2	
0	
2	
0	
3	
5	
8	
3	
1	
0	
0	
2	
1	
1	
7	
4	
3	
0	
1	
5	
4	
3	
0	
2	
2	
1	
1	
1	
1	
2	
1	
4	
5	
2	
1	
1	
2	
5	
1	
2	
1	
3	
3	
7	
2	
1	
0	
2	
0	
3	
1	
2	
2	
2	
3	
3	
0	
0	
0	
1	
1	
2	
2	
1	
1	
1	
5	
0	
2	
1	
4	
1	
2	
7	
2	
3	
3	
1	
3	
2	
0	
0	
2	
3	
1	
4	
1	
1	
3	
3	
1	
6	
2	
1	
4	
1	
2	
2	
0	
3	
2	
1	
1	
2	
0	
1	
0	
1	
6	
3	
2	
0	
1	
0	
3	
2	
3	
3	
2	
4	
0	
5	
1	
3	
0	
3	
1	
5	
0	
1	
2	
2	
2	
4	
3	
1	
1	
4	
2	
4	
4	
1	
4	
2	
3	
4	
1	
3	
2	
2	
1	
2	
0	
2	
4	
2	
2	
0	
1	
2	
3	
0	
2	
1	
3	
5	
5	
1	
2	
3	
0	
0	
2	
2	
2	
1	
5	
1	
3	
3	
3	
0	
2	
2	
3	
2	
2	
4	
2	
4	
4	
1	
2	
3	
2	
1	
0	
4	
1	
7	
1	
0	
2	
1	
3	
2	
3	
1	
0	
2	
2	
2	
3	
2	
4	
0	
5	
1	
1	
3	
1	
0	
1	
2	
3	
4	
0	
1	
2	
1	
3	
2	
6	
1	
2	
0	
2	
3	
1	
3	
1	
3	
2	
3	
1	
1	
0	
3	
2	
6	
2	
2	
4	
0	
1	
5	
0	
1	
4	
1	
1	
4	
0	
1	
3	
4	
2	
1	
2	
3	
2	
1	
2	
2	
2	
1	
2	
4	
6	
1	
3	
1	
2	
3	
0	
3	
3	
2	
2	
2	
2	
2	
3	
3	
0	
2	
1	
2	
3	
2	
1	
4	
0	
1	
1	
0	
2	
0	
0	
0	
2	
2	
0	
4	
0	
2	
0	
1	
2	
3	
1	
1	
3	
0	
2	
2	
3	
2	
1	
2	
3	
1	
1	
2	
4	
2	
5	
1	
2	
3	
3	
1	
4	
4	
1	
2	
1	
2	
0	
1	
4	
2	
2	
1	
1	
1	
1	
2	
2	
3	
1	
0	
3	
0	
2	
3	
1	
1	
0	
0	
2	
2	
1	
1	
4	
1	
0	
0	
4	
3	
3	
5	
2	
2	
4	
0	
2	
0	
1	
3	
3	
4	
3	
4	
1	
2	
0	
0	
1	
1	
1	
0	
2	
0	
0	
4	
4	
1	
1	
3	
2	
2	
5	
0	
2	
1	
3	
1	
1	
0	
2	
1	
2	
0	
3	
1	
1	
7	
2	
3	
1	
1	
1	
3	
3	
0	
3	
1	
1	
1	
3	
0	
0	
1	
1	
1	
0	
1	
1	
2	
3	
2	
1	
0	
2	
3	
0	
3	
0	
5	
3	
1	
0	
1	
0	
3	
2	
0	
3	
4	
3	
3	
1	
1	
4	
2	
0	
0	
2	
3	
2	
3	
1	
4	
4	
1	
1	
2	
1	
1	
1	
2	
2	
2	
2	
2	
5	
2	
1	
1	
2	
2	
2	
1	
0	
3	
1	
6	
3	
1	
2	
1	
1	
0	
0	
3	
1	
3	
1	
3	
0	
0	
1	
5	
3	
2	
1	
0	
2	
2	
4	
1	
6	
2	
1	
0	
1	
1	
2	
2	
4	
3	
3	
0	
1	
1	
2	
3	
3	
2	
2	
2	
1	
0	
4	
4	
6	
1	
2	
0	
1	
4	
1	
3	
2	
0	
5	
4	
0	
2	
1	
4	
5	
4	
2	
2	
0	
3	
3	
3	
3	
4	
3	
1	
0	
3	
1	
1	
1	
0	
2	
0	
4	
1	
1	
4	
3	
0	
1	
1	
2	
1	
2	
2	
2	
1	
2	
3	
0	
1	
1	
1	
2	
1	
3	
0	
2	
1	
0	
1	
2	
3	
3	
4	
1	
6	
2	
0	
1	
0	
3	
3	
0	
2	
3	
4	
4	
2	
1	
5	
4	
2	
2	
3	
1	
3	
5	
1	
2	
2	
3	
1	
3	
1	
5	
0	
1	
2	
2	
2	
2	
1	
1	
2	
1	
3	
4	
2	
0	
1	
1	
2	
4	
0	
1	
2	
2	
0	
1	
1	
3	
0	
1	
1	
2	
2	
3	
3	
3	
1	
1	
1	
2	
1	
0	
1	
0	
3	
0	
1	
0	
1	
2	
1	
1	
1	
0	
3	
1	
1	
3	
1	
0	
1	
3	
6	
3	
5	
1	
3	
2	
0	
0	
0	
2	
2	
2	
2	
0	
3	
1	
3	
3	
1	
4	
2	
2	
1	
3	
5	
2	
2	
0	
1	
2	
2	
0	
1	
3	
1	
0	
3	
2	
1	
4	
2	
1	
2	
2	
3	
1	
3	
4	
1	
1	
1	
0	
1	
2	
3	
1	
1	
1	
0	
0	
0	
1	
2	
3	
2	
3	
1	
1	
0	
2	
5	
1	
4	
4	
5	
1	
3	
1	
1	
0	
1	
2	
2	
2	
2	
2	
0	
1	
0	
2	
3	
2	
0	
2	
4	
1	
3	
0	
2	
1	
2	
2	
2	
4	
2	
3	
1	
1	
0	
2	
0	
2	
0	
2	
0	
6	
1	
2	
0	
1	
0	
3	
0	
5	
2	
1	
3	
1	
2	
2	
2	
3	
3	
0	
1	
4	
2	
0	
4	
3	
3	
3	
2	
7	
3	
0	
1	
2	
2	
2	
2	
3	
2	
1	
3	
1	
0	
2	
5	
1	
2	
1	
2	
1	
3	
1	
2	
0	
0	
2	
0	
1	
3	
1	
3	
0	
1	
1	
1	
1	
1	
2	
1	
2	
1	
2	
3	
2	
4	
1	
0	
0	
1	
3	
3	
5	
3	
0	
5	
2	
3	
2	
0	
1	
2	
1	
1	
1	
2	
0	
3	
3	
1	
6	
3	
0	
4	
3	
2	
1	
0	
4	
2	
2	
2	
2	
0	
3	
2	
2	
1	
4	
2	
0	
0	
2	
1	
1	
1	
2	
2	
2	
4	
1	
2	
2	
3	
4	
2	
1	
2	
3	
0	
0	
0	
0	
0	
0	
0	
0	
0	
0	
0	
0	
0	
0	
0	
0	
0	
0	
0	
0	
0	
0	
0	
