#PicoHarp 300  Histogram Data			03/13/2023 12:44:35 PM
#channels per curve
3907
#display curve no.
0	
#memory block no.
0	
#ns/channel
0.1280	
#counts
4	
4	
2	
6	
5	
6	
10	
2	
3	
3	
4	
5	
4	
5	
4	
3	
1	
5	
2	
1	
7	
5	
5	
1	
5	
3	
4	
3	
6	
4	
1	
7	
5	
3	
2	
3	
4	
4	
3	
3	
4	
2	
3	
1	
6	
3	
6	
2	
2	
1	
4	
4	
7	
1	
1	
6	
6	
3	
5	
5	
1	
5	
9	
4	
2	
3	
4	
3	
9	
5	
4	
0	
3	
4	
5	
0	
5	
1	
5	
4	
1	
2	
5	
3	
5	
3	
7	
3	
6	
2	
0	
3	
4	
3	
1	
1	
1	
2	
3	
3	
4	
3	
5	
4	
2	
0	
0	
4	
4	
4	
3	
4	
3	
3	
2	
1	
3	
1	
3	
3	
5	
7	
4	
5	
4	
2	
6	
7	
7	
2	
3	
3	
4	
7	
3	
5	
4	
5	
2	
10	
3	
1	
8	
4	
4	
2	
4	
6	
1	
3	
7	
4	
5	
3	
3	
3	
4	
2	
4	
2	
6	
5	
2	
5	
5	
5	
6	
2	
2	
2	
5	
2	
6	
5	
3	
7	
6	
3	
3	
6	
4	
5	
0	
4	
4	
4	
4	
4	
5	
2	
4	
1	
5	
8	
2	
5	
3	
4	
3	
1	
4	
2	
5	
4	
2	
4	
5	
3	
6	
4	
4	
6	
4	
4	
2	
5	
4	
3	
2	
5	
5	
2	
3	
5	
5	
4	
2	
3	
2	
5	
0	
4	
4	
1	
7	
7	
2	
1	
4	
4	
2	
3	
4	
32	
135	
331	
554	
676	
814	
876	
962	
1000	
902	
905	
954	
901	
866	
904	
825	
794	
882	
835	
803	
749	
743	
766	
814	
731	
698	
778	
744	
746	
731	
662	
672	
679	
634	
627	
638	
659	
618	
621	
602	
583	
646	
565	
555	
573	
567	
575	
620	
538	
531	
513	
534	
505	
534	
551	
520	
516	
484	
484	
498	
462	
472	
504	
452	
417	
461	
439	
427	
421	
383	
406	
440	
447	
416	
391	
366	
404	
356	
407	
354	
412	
380	
370	
357	
368	
359	
368	
370	
365	
310	
377	
366	
324	
365	
308	
334	
316	
354	
332	
282	
298	
322	
306	
321	
275	
271	
298	
273	
263	
280	
287	
280	
273	
288	
256	
283	
247	
254	
260	
217	
265	
253	
275	
258	
255	
247	
239	
227	
247	
230	
235	
227	
237	
227	
218	
205	
247	
223	
213	
197	
217	
232	
236	
225	
217	
219	
194	
214	
198	
198	
190	
216	
190	
193	
167	
203	
150	
167	
183	
178	
191	
174	
170	
184	
178	
168	
166	
185	
175	
175	
171	
173	
166	
171	
162	
170	
168	
167	
145	
146	
149	
156	
139	
162	
165	
151	
142	
134	
148	
137	
139	
121	
152	
136	
137	
128	
130	
138	
124	
152	
123	
127	
107	
114	
128	
131	
121	
122	
131	
110	
107	
126	
114	
124	
125	
103	
110	
106	
111	
108	
131	
133	
115	
99	
120	
99	
124	
119	
121	
129	
106	
99	
102	
82	
101	
106	
104	
92	
102	
105	
108	
92	
96	
94	
116	
85	
101	
92	
92	
94	
103	
85	
89	
94	
97	
82	
96	
89	
93	
83	
84	
80	
79	
99	
76	
83	
87	
80	
83	
79	
72	
76	
71	
79	
91	
87	
86	
86	
80	
64	
85	
91	
72	
80	
72	
63	
80	
71	
68	
61	
81	
69	
84	
64	
55	
70	
64	
58	
62	
75	
75	
66	
71	
72	
63	
59	
65	
68	
70	
67	
61	
66	
64	
63	
71	
66	
55	
63	
61	
53	
63	
55	
48	
65	
48	
71	
50	
47	
61	
52	
55	
54	
51	
52	
58	
63	
66	
64	
64	
63	
65	
57	
59	
61	
47	
52	
54	
43	
57	
39	
57	
44	
40	
39	
43	
44	
48	
46	
49	
48	
49	
48	
59	
43	
41	
56	
56	
40	
38	
42	
47	
39	
40	
50	
41	
41	
33	
44	
39	
26	
45	
43	
44	
56	
32	
34	
42	
39	
26	
43	
39	
30	
56	
40	
26	
34	
42	
43	
37	
45	
37	
43	
33	
33	
27	
34	
44	
38	
29	
39	
34	
41	
35	
43	
48	
34	
41	
32	
32	
34	
31	
40	
31	
37	
29	
26	
31	
40	
27	
35	
29	
39	
33	
31	
24	
38	
28	
26	
25	
33	
37	
28	
23	
37	
33	
30	
24	
36	
31	
26	
25	
33	
32	
27	
36	
22	
20	
25	
18	
34	
32	
34	
27	
30	
36	
33	
20	
30	
22	
29	
24	
28	
30	
17	
19	
20	
29	
24	
24	
33	
20	
21	
26	
26	
23	
21	
21	
21	
20	
32	
26	
30	
28	
26	
25	
21	
24	
22	
19	
29	
21	
22	
13	
26	
24	
19	
27	
26	
28	
16	
17	
26	
23	
21	
12	
17	
22	
22	
24	
24	
11	
26	
25	
15	
21	
26	
22	
23	
29	
18	
26	
23	
19	
26	
23	
22	
16	
17	
19	
17	
22	
18	
23	
27	
20	
16	
13	
35	
13	
18	
29	
16	
11	
30	
17	
23	
25	
14	
22	
12	
13	
17	
28	
19	
13	
19	
28	
18	
20	
15	
22	
24	
16	
22	
17	
18	
21	
18	
13	
15	
18	
14	
20	
14	
16	
19	
11	
11	
19	
11	
13	
13	
8	
11	
17	
24	
14	
15	
17	
12	
19	
21	
14	
20	
18	
18	
10	
15	
12	
13	
17	
14	
17	
12	
14	
22	
12	
9	
13	
9	
20	
10	
17	
13	
16	
11	
20	
13	
11	
24	
4	
12	
12	
17	
14	
14	
13	
15	
13	
11	
19	
9	
17	
14	
13	
23	
20	
11	
12	
9	
15	
18	
10	
21	
13	
11	
14	
15	
17	
10	
14	
17	
10	
12	
14	
12	
15	
10	
10	
9	
18	
8	
14	
11	
15	
8	
10	
12	
13	
10	
12	
8	
15	
10	
10	
9	
8	
10	
9	
8	
14	
12	
7	
15	
6	
11	
12	
10	
12	
7	
9	
10	
5	
5	
11	
10	
7	
9	
8	
10	
11	
9	
10	
13	
14	
20	
3	
13	
8	
6	
9	
9	
9	
9	
12	
12	
13	
7	
7	
15	
14	
7	
11	
9	
18	
12	
8	
16	
13	
10	
13	
10	
13	
19	
18	
16	
5	
11	
4	
16	
9	
15	
15	
12	
6	
11	
12	
6	
8	
4	
12	
10	
8	
11	
10	
6	
10	
12	
7	
13	
10	
12	
11	
8	
10	
9	
10	
15	
13	
16	
13	
7	
12	
7	
11	
7	
9	
5	
9	
5	
16	
11	
6	
9	
12	
11	
11	
6	
14	
15	
7	
15	
9	
7	
13	
8	
15	
12	
12	
10	
9	
15	
11	
6	
8	
10	
9	
7	
9	
9	
5	
9	
6	
9	
12	
6	
11	
5	
7	
7	
10	
11	
11	
5	
4	
8	
7	
7	
5	
8	
10	
14	
9	
9	
5	
8	
4	
12	
5	
11	
9	
6	
16	
8	
10	
6	
7	
10	
9	
7	
9	
3	
12	
5	
5	
4	
8	
4	
5	
12	
9	
10	
11	
6	
9	
12	
9	
11	
6	
8	
6	
10	
6	
3	
12	
4	
11	
6	
6	
10	
9	
7	
6	
14	
6	
7	
8	
8	
7	
5	
6	
4	
7	
5	
7	
10	
9	
12	
13	
10	
12	
12	
7	
7	
11	
6	
11	
10	
8	
4	
3	
1	
4	
12	
13	
6	
4	
9	
13	
7	
4	
3	
13	
6	
10	
7	
11	
4	
9	
11	
11	
6	
15	
3	
16	
12	
11	
9	
5	
9	
11	
12	
5	
7	
9	
7	
9	
5	
11	
12	
8	
6	
9	
3	
7	
5	
6	
5	
1	
8	
2	
2	
5	
6	
12	
5	
7	
10	
9	
2	
7	
6	
9	
6	
5	
8	
9	
9	
10	
6	
5	
13	
8	
12	
7	
6	
8	
9	
10	
9	
10	
9	
6	
6	
11	
7	
5	
6	
4	
8	
7	
10	
9	
8	
13	
9	
4	
6	
6	
6	
12	
4	
5	
5	
9	
8	
0	
5	
7	
8	
14	
6	
4	
8	
11	
10	
2	
5	
6	
9	
5	
3	
5	
10	
3	
9	
5	
11	
8	
8	
7	
11	
7	
7	
7	
7	
4	
9	
7	
5	
7	
5	
10	
6	
5	
5	
8	
7	
6	
9	
5	
8	
6	
6	
11	
10	
8	
6	
4	
7	
8	
8	
10	
3	
7	
10	
3	
4	
1	
6	
7	
7	
4	
2	
4	
9	
7	
9	
4	
4	
1	
11	
8	
7	
4	
4	
11	
5	
3	
9	
4	
6	
9	
4	
10	
6	
6	
9	
8	
5	
11	
9	
3	
5	
5	
11	
3	
5	
5	
6	
10	
3	
8	
9	
6	
8	
12	
3	
7	
5	
9	
4	
5	
5	
4	
5	
6	
12	
6	
5	
2	
6	
11	
6	
6	
5	
5	
7	
3	
5	
3	
5	
12	
7	
6	
7	
3	
2	
15	
5	
4	
5	
0	
4	
5	
7	
3	
3	
5	
4	
10	
2	
7	
5	
3	
5	
5	
4	
5	
7	
6	
6	
6	
8	
4	
5	
9	
3	
6	
2	
5	
8	
5	
5	
4	
6	
5	
5	
5	
6	
3	
6	
7	
5	
4	
4	
3	
7	
2	
9	
3	
9	
7	
5	
3	
2	
11	
11	
8	
5	
6	
3	
3	
6	
3	
4	
10	
4	
6	
5	
3	
6	
8	
7	
2	
7	
4	
8	
6	
4	
10	
4	
5	
6	
5	
4	
9	
7	
5	
3	
6	
9	
4	
10	
9	
4	
7	
7	
8	
7	
7	
6	
4	
6	
6	
10	
6	
10	
11	
2	
5	
6	
4	
5	
3	
9	
6	
6	
6	
5	
4	
1	
6	
9	
10	
4	
6	
4	
7	
2	
8	
5	
3	
6	
12	
4	
5	
4	
5	
6	
5	
2	
6	
6	
6	
9	
2	
8	
6	
8	
11	
4	
5	
7	
8	
4	
3	
8	
3	
7	
3	
7	
6	
5	
5	
6	
5	
6	
5	
5	
6	
6	
7	
5	
2	
4	
2	
8	
1	
3	
9	
3	
3	
7	
6	
2	
3	
3	
4	
5	
5	
7	
6	
3	
5	
3	
3	
5	
5	
7	
4	
5	
4	
7	
6	
1	
1	
5	
1	
4	
4	
6	
1	
6	
6	
8	
6	
4	
6	
6	
11	
7	
2	
6	
2	
4	
7	
3	
4	
5	
3	
3	
5	
4	
4	
7	
3	
3	
6	
4	
5	
5	
6	
5	
6	
3	
6	
4	
10	
3	
6	
4	
4	
1	
2	
5	
4	
3	
7	
4	
5	
4	
1	
4	
3	
6	
6	
2	
6	
5	
11	
7	
5	
8	
7	
7	
6	
7	
5	
5	
4	
5	
5	
3	
7	
9	
5	
4	
7	
5	
3	
3	
4	
5	
5	
6	
4	
3	
3	
3	
2	
3	
2	
1	
9	
7	
8	
7	
4	
6	
4	
5	
5	
5	
4	
5	
11	
4	
5	
2	
6	
4	
6	
7	
5	
5	
3	
5	
6	
5	
3	
4	
4	
3	
4	
4	
12	
4	
3	
1	
7	
2	
6	
6	
5	
3	
7	
7	
5	
4	
4	
4	
3	
6	
4	
3	
6	
5	
7	
5	
1	
8	
3	
8	
2	
3	
4	
2	
13	
1	
4	
6	
2	
7	
5	
4	
6	
4	
4	
5	
2	
6	
4	
9	
3	
8	
4	
6	
3	
8	
7	
4	
4	
1	
3	
1	
5	
5	
2	
5	
6	
5	
7	
5	
8	
4	
2	
3	
4	
4	
5	
5	
4	
6	
3	
6	
9	
5	
3	
8	
8	
9	
4	
3	
7	
6	
1	
4	
7	
5	
8	
6	
2	
5	
4	
5	
3	
1	
5	
3	
5	
6	
5	
5	
2	
4	
1	
4	
1	
3	
4	
4	
2	
4	
7	
7	
2	
2	
6	
7	
6	
3	
9	
4	
3	
4	
2	
8	
4	
3	
5	
6	
5	
8	
5	
7	
4	
6	
2	
7	
2	
5	
5	
3	
1	
7	
3	
3	
4	
5	
4	
7	
5	
3	
3	
4	
0	
3	
4	
6	
7	
3	
0	
5	
4	
6	
4	
7	
4	
7	
5	
6	
4	
4	
2	
4	
1	
5	
2	
5	
4	
7	
2	
4	
2	
7	
2	
1	
1	
2	
5	
5	
6	
4	
2	
9	
1	
4	
2	
9	
2	
6	
2	
4	
4	
6	
2	
3	
1	
2	
5	
5	
3	
7	
4	
3	
6	
5	
4	
4	
6	
6	
8	
2	
4	
5	
6	
7	
4	
1	
6	
6	
4	
5	
7	
3	
3	
5	
4	
2	
5	
1	
3	
3	
3	
3	
6	
2	
7	
2	
9	
5	
4	
2	
4	
5	
4	
2	
5	
2	
2	
2	
5	
6	
1	
12	
8	
5	
4	
2	
3	
4	
6	
6	
5	
3	
5	
3	
4	
4	
3	
6	
4	
4	
3	
6	
3	
4	
4	
1	
4	
6	
3	
1	
6	
5	
6	
9	
7	
6	
2	
5	
5	
2	
3	
3	
5	
4	
6	
2	
2	
5	
3	
3	
1	
2	
6	
6	
7	
6	
2	
7	
3	
6	
5	
2	
4	
4	
1	
7	
3	
7	
5	
3	
3	
5	
0	
3	
4	
2	
5	
6	
5	
6	
4	
6	
5	
3	
3	
4	
2	
3	
6	
6	
2	
4	
4	
3	
6	
3	
2	
4	
6	
3	
5	
4	
2	
3	
3	
9	
5	
5	
4	
5	
3	
4	
2	
3	
2	
3	
8	
1	
4	
5	
6	
8	
4	
3	
2	
6	
6	
5	
2	
5	
4	
4	
4	
3	
1	
6	
5	
3	
3	
5	
5	
5	
3	
5	
7	
2	
4	
2	
2	
5	
2	
3	
2	
5	
5	
4	
7	
3	
3	
2	
10	
5	
2	
7	
5	
3	
5	
5	
4	
4	
3	
2	
8	
5	
2	
4	
4	
4	
4	
6	
5	
2	
1	
6	
4	
3	
6	
1	
3	
2	
4	
4	
9	
0	
4	
0	
7	
7	
5	
5	
3	
0	
2	
1	
7	
3	
5	
5	
3	
4	
4	
5	
4	
4	
2	
2	
2	
5	
3	
1	
5	
7	
5	
2	
2	
2	
5	
3	
2	
2	
6	
5	
9	
6	
4	
2	
5	
3	
3	
8	
5	
4	
4	
4	
1	
3	
3	
7	
5	
1	
2	
2	
4	
5	
2	
4	
3	
5	
2	
5	
5	
2	
1	
5	
3	
2	
1	
7	
3	
5	
3	
6	
9	
1	
4	
3	
5	
1	
2	
1	
2	
2	
6	
4	
3	
2	
5	
4	
2	
7	
4	
6	
4	
2	
4	
5	
1	
8	
3	
2	
8	
1	
3	
6	
4	
8	
6	
8	
2	
5	
2	
4	
3	
5	
3	
1	
4	
4	
4	
4	
4	
5	
4	
10	
8	
3	
2	
5	
4	
4	
6	
5	
5	
7	
4	
5	
3	
1	
2	
3	
6	
3	
2	
4	
7	
5	
3	
4	
6	
3	
5	
3	
5	
7	
4	
5	
6	
2	
4	
4	
5	
2	
3	
12	
3	
1	
7	
1	
5	
5	
5	
3	
3	
4	
2	
2	
4	
5	
2	
1	
4	
4	
3	
5	
5	
3	
5	
4	
5	
3	
5	
6	
3	
6	
3	
5	
1	
2	
6	
6	
5	
7	
1	
3	
4	
1	
3	
3	
2	
4	
4	
5	
4	
7	
4	
3	
10	
4	
4	
7	
3	
0	
5	
4	
6	
3	
3	
5	
5	
7	
2	
6	
0	
4	
1	
4	
6	
6	
1	
1	
4	
5	
2	
2	
5	
2	
4	
2	
3	
1	
1	
6	
2	
4	
6	
1	
5	
5	
6	
5	
7	
4	
5	
5	
2	
5	
5	
4	
1	
1	
3	
4	
7	
10	
4	
4	
5	
3	
3	
4	
6	
8	
4	
5	
4	
4	
2	
1	
7	
5	
1	
4	
5	
1	
2	
4	
4	
4	
6	
8	
5	
2	
4	
4	
8	
2	
8	
1	
4	
1	
5	
0	
2	
5	
4	
0	
1	
3	
3	
3	
2	
4	
4	
6	
3	
2	
2	
2	
5	
5	
1	
4	
1	
8	
6	
5	
3	
4	
3	
2	
1	
7	
6	
3	
3	
4	
4	
1	
4	
3	
5	
5	
5	
4	
3	
2	
4	
5	
1	
2	
2	
3	
3	
3	
6	
5	
1	
4	
4	
2	
3	
5	
3	
2	
5	
4	
4	
4	
2	
2	
6	
2	
2	
1	
1	
5	
5	
8	
3	
4	
6	
3	
4	
6	
4	
2	
1	
1	
7	
6	
7	
3	
2	
5	
2	
4	
4	
4	
5	
2	
3	
3	
5	
3	
4	
7	
5	
4	
10	
1	
4	
3	
1	
1	
3	
4	
4	
5	
2	
3	
2	
4	
7	
1	
3	
5	
6	
6	
3	
3	
3	
6	
2	
3	
5	
2	
4	
3	
2	
7	
1	
1	
4	
8	
6	
4	
2	
3	
6	
2	
5	
7	
1	
3	
5	
5	
4	
6	
2	
1	
2	
3	
1	
5	
1	
3	
3	
1	
1	
6	
3	
2	
4	
1	
3	
5	
4	
3	
2	
4	
6	
6	
4	
4	
1	
4	
10	
3	
3	
5	
5	
3	
7	
7	
3	
5	
4	
4	
4	
5	
7	
3	
2	
8	
3	
3	
6	
4	
5	
5	
2	
5	
9	
7	
4	
1	
2	
6	
7	
3	
4	
5	
8	
5	
6	
3	
5	
2	
3	
5	
3	
6	
2	
2	
5	
3	
3	
5	
2	
8	
7	
3	
3	
5	
5	
4	
1	
1	
1	
3	
3	
2	
10	
3	
5	
4	
3	
8	
2	
8	
2	
5	
0	
4	
8	
3	
4	
2	
8	
5	
8	
7	
2	
4	
2	
4	
7	
5	
3	
2	
0	
6	
4	
4	
1	
6	
4	
3	
9	
1	
6	
5	
1	
1	
3	
2	
1	
2	
2	
1	
7	
4	
3	
1	
8	
0	
5	
5	
1	
2	
7	
4	
1	
9	
2	
5	
3	
5	
5	
3	
3	
4	
2	
1	
3	
2	
4	
2	
3	
5	
5	
3	
2	
3	
4	
3	
4	
5	
6	
4	
3	
1	
7	
1	
2	
0	
3	
3	
4	
5	
3	
4	
2	
0	
6	
4	
4	
3	
3	
2	
6	
5	
2	
3	
3	
7	
7	
2	
2	
5	
6	
2	
6	
9	
5	
2	
5	
3	
7	
5	
2	
5	
6	
5	
4	
4	
4	
3	
2	
3	
7	
7	
7	
3	
3	
5	
3	
2	
4	
1	
7	
6	
3	
3	
5	
5	
6	
3	
2	
7	
3	
4	
3	
3	
6	
1	
2	
3	
2	
4	
5	
0	
3	
7	
4	
4	
4	
7	
2	
2	
7	
2	
5	
0	
4	
9	
5	
3	
4	
3	
6	
5	
3	
5	
3	
6	
1	
3	
3	
1	
5	
4	
1	
3	
2	
3	
2	
6	
4	
3	
6	
8	
3	
3	
4	
3	
2	
3	
6	
3	
4	
6	
5	
2	
5	
5	
4	
6	
7	
3	
4	
2	
3	
4	
4	
1	
7	
2	
5	
4	
2	
4	
1	
3	
2	
3	
4	
2	
5	
2	
2	
1	
4	
7	
3	
4	
5	
4	
5	
6	
3	
3	
2	
3	
1	
3	
3	
7	
2	
3	
5	
6	
3	
4	
4	
2	
5	
2	
2	
3	
4	
4	
3	
3	
5	
2	
6	
5	
3	
0	
3	
1	
4	
10	
4	
0	
1	
4	
5	
5	
4	
4	
4	
3	
3	
6	
2	
3	
3	
6	
4	
1	
3	
6	
3	
4	
3	
4	
5	
5	
4	
7	
5	
4	
4	
5	
6	
5	
3	
6	
3	
7	
5	
4	
6	
7	
3	
2	
1	
5	
3	
2	
2	
7	
5	
4	
7	
5	
5	
4	
4	
6	
5	
2	
1	
6	
2	
5	
4	
4	
3	
1	
2	
7	
3	
5	
6	
5	
3	
2	
4	
4	
4	
6	
3	
4	
2	
6	
4	
4	
6	
4	
2	
2	
4	
2	
2	
3	
2	
2	
6	
0	
5	
5	
3	
2	
2	
10	
4	
5	
7	
3	
5	
2	
2	
1	
5	
2	
3	
3	
2	
5	
1	
2	
1	
7	
2	
0	
3	
5	
4	
3	
3	
4	
2	
6	
1	
1	
0	
4	
6	
5	
2	
2	
3	
5	
6	
3	
3	
1	
6	
11	
5	
5	
4	
4	
6	
2	
3	
6	
2	
4	
4	
10	
3	
1	
5	
1	
6	
3	
3	
5	
3	
6	
2	
4	
2	
6	
2	
4	
5	
3	
5	
5	
5	
7	
4	
5	
2	
3	
2	
3	
3	
5	
2	
1	
5	
4	
5	
3	
5	
7	
3	
4	
2	
1	
7	
1	
2	
2	
8	
5	
2	
2	
4	
2	
5	
7	
3	
2	
7	
3	
10	
2	
0	
7	
4	
4	
3	
2	
0	
7	
4	
1	
4	
8	
2	
2	
5	
1	
2	
5	
6	
2	
1	
6	
4	
5	
3	
1	
1	
3	
0	
7	
4	
7	
5	
1	
3	
2	
5	
4	
4	
2	
1	
6	
5	
5	
4	
4	
4	
1	
3	
8	
7	
4	
5	
2	
5	
3	
4	
4	
6	
0	
1	
0	
4	
3	
4	
4	
6	
4	
3	
2	
6	
3	
7	
6	
1	
9	
6	
3	
5	
4	
5	
3	
3	
4	
6	
2	
4	
1	
2	
7	
2	
7	
7	
3	
4	
3	
4	
9	
3	
3	
5	
1	
2	
2	
3	
6	
6	
5	
5	
7	
2	
2	
5	
3	
6	
3	
2	
8	
2	
6	
5	
4	
0	
6	
3	
5	
4	
1	
4	
3	
6	
4	
4	
4	
6	
2	
8	
4	
3	
8	
2	
4	
4	
4	
3	
2	
1	
5	
2	
5	
5	
2	
2	
2	
2	
1	
2	
6	
8	
2	
5	
7	
6	
4	
2	
2	
1	
6	
6	
2	
3	
5	
4	
4	
1	
6	
6	
7	
5	
1	
6	
6	
6	
7	
5	
5	
4	
2	
2	
3	
8	
5	
4	
8	
0	
4	
4	
8	
5	
2	
5	
4	
5	
1	
3	
4	
1	
2	
2	
3	
3	
3	
5	
5	
6	
2	
1	
2	
4	
1	
5	
4	
4	
3	
5	
4	
2	
1	
11	
5	
3	
6	
3	
3	
2	
5	
2	
4	
3	
6	
2	
5	
2	
6	
0	
3	
2	
3	
4	
3	
2	
4	
1	
5	
2	
3	
5	
5	
4	
1	
3	
2	
2	
3	
4	
6	
5	
2	
4	
3	
3	
6	
1	
7	
6	
2	
2	
5	
3	
6	
2	
2	
2	
4	
3	
1	
4	
3	
6	
3	
1	
5	
4	
7	
4	
6	
4	
4	
5	
2	
3	
3	
4	
6	
4	
3	
4	
3	
4	
7	
3	
3	
5	
0	
6	
2	
1	
7	
2	
3	
3	
4	
4	
3	
6	
2	
2	
3	
1	
7	
2	
6	
1	
1	
7	
4	
3	
3	
4	
4	
6	
3	
3	
4	
4	
3	
2	
2	
4	
7	
3	
4	
1	
3	
2	
2	
2	
4	
4	
1	
6	
2	
4	
1	
5	
4	
4	
3	
2	
2	
1	
7	
5	
8	
0	
1	
4	
3	
0	
5	
5	
5	
2	
3	
1	
2	
7	
1	
5	
6	
2	
2	
5	
5	
3	
5	
2	
6	
3	
3	
4	
3	
5	
3	
2	
6	
4	
6	
6	
1	
4	
5	
3	
1	
1	
6	
5	
3	
3	
4	
3	
5	
6	
3	
4	
2	
3	
7	
0	
3	
5	
3	
2	
4	
1	
2	
5	
5	
1	
1	
9	
4	
3	
3	
3	
6	
2	
5	
2	
3	
6	
3	
0	
1	
2	
1	
2	
4	
2	
3	
4	
3	
4	
4	
4	
2	
4	
5	
3	
7	
1	
5	
8	
2	
2	
4	
2	
3	
5	
4	
5	
1	
5	
2	
4	
6	
6	
2	
8	
4	
2	
3	
2	
4	
2	
3	
4	
5	
2	
4	
0	
4	
5	
6	
4	
2	
3	
1	
4	
5	
5	
2	
3	
3	
2	
6	
5	
5	
2	
4	
4	
1	
1	
1	
4	
1	
5	
6	
5	
4	
8	
7	
3	
2	
2	
5	
5	
4	
1	
5	
4	
4	
8	
2	
3	
4	
4	
4	
5	
5	
1	
2	
2	
0	
3	
7	
5	
1	
5	
6	
1	
1	
4	
4	
5	
5	
2	
6	
0	
5	
2	
2	
3	
5	
2	
5	
5	
8	
4	
3	
6	
6	
2	
0	
0	
0	
0	
0	
0	
0	
0	
0	
0	
0	
0	
0	
0	
0	
0	
0	
0	
0	
0	
0	
0	
0	
0	
0	
0	
0	
0	
0	
0	
0	
0	
0	
