#PicoHarp 300  Histogram Data			03/13/2023 12:48:22 PM
#channels per curve
3907
#display curve no.
0	
#memory block no.
0	
#ns/channel
0.1280	
#counts
7	
7	
1	
2	
0	
2	
2	
3	
2	
1	
3	
3	
2	
3	
3	
4	
4	
4	
1	
3	
2	
2	
2	
1	
1	
2	
3	
4	
1	
2	
3	
6	
2	
4	
2	
0	
0	
3	
7	
4	
3	
2	
5	
4	
0	
3	
10	
2	
4	
1	
3	
5	
5	
5	
4	
6	
3	
4	
0	
3	
1	
1	
8	
3	
3	
1	
4	
2	
3	
1	
3	
4	
2	
3	
3	
5	
2	
3	
5	
4	
1	
3	
2	
3	
4	
1	
1	
2	
4	
3	
3	
5	
3	
4	
5	
1	
2	
2	
1	
2	
5	
4	
5	
2	
9	
4	
3	
3	
0	
3	
4	
2	
3	
0	
3	
3	
2	
4	
2	
3	
0	
0	
3	
1	
0	
3	
4	
2	
9	
2	
2	
0	
2	
6	
0	
0	
2	
5	
3	
1	
5	
1	
2	
1	
2	
4	
2	
4	
3	
2	
2	
4	
4	
4	
4	
3	
3	
6	
1	
3	
1	
2	
1	
3	
1	
3	
2	
2	
1	
7	
4	
1	
1	
2	
1	
1	
6	
3	
3	
8	
3	
3	
6	
3	
3	
4	
3	
6	
7	
4	
1	
4	
5	
2	
2	
3	
4	
3	
2	
4	
1	
4	
1	
6	
2	
4	
5	
4	
2	
2	
3	
5	
3	
1	
5	
3	
2	
2	
3	
1	
5	
1	
1	
0	
9	
3	
7	
2	
2	
6	
3	
2	
4	
5	
0	
5	
1	
4	
5	
6	
4	
2	
5	
22	
127	
319	
500	
661	
801	
847	
933	
949	
935	
928	
941	
1000	
947	
862	
878	
829	
874	
832	
855	
828	
801	
751	
767	
771	
753	
765	
792	
718	
726	
758	
645	
737	
633	
609	
703	
695	
666	
620	
643	
637	
593	
602	
593	
598	
600	
608	
562	
551	
587	
556	
515	
574	
588	
576	
523	
545	
516	
522	
507	
471	
489	
479	
484	
488	
483	
486	
444	
466	
482	
479	
454	
445	
423	
431	
442	
404	
449	
386	
427	
393	
417	
394	
414	
386	
388	
394	
368	
370	
387	
343	
370	
364	
327	
364	
349	
338	
376	
329	
355	
369	
322	
325	
361	
368	
341	
315	
290	
331	
291	
304	
283	
315	
296	
302	
293	
306	
266	
294	
272	
293	
295	
278	
281	
271	
254	
279	
271	
249	
271	
251	
244	
281	
252	
220	
230	
249	
235	
226	
259	
231	
245	
226	
227	
229	
232	
237	
239	
217	
222	
201	
223	
223	
178	
220	
192	
178	
207	
164	
177	
191	
202	
183	
187	
203	
198	
186	
180	
186	
206	
189	
185	
185	
172	
193	
185	
186	
174	
187	
215	
184	
162	
163	
165	
171	
166	
154	
171	
180	
168	
139	
176	
148	
159	
143	
142	
121	
156	
157	
141	
163	
159	
159	
159	
122	
152	
126	
149	
146	
137	
115	
136	
137	
139	
128	
140	
124	
122	
105	
135	
117	
112	
108	
120	
145	
125	
129	
121	
102	
133	
121	
116	
103	
110	
128	
126	
117	
118	
111	
111	
102	
108	
105	
139	
96	
115	
95	
98	
120	
101	
104	
94	
120	
103	
88	
107	
101	
94	
105	
94	
110	
98	
90	
99	
95	
91	
100	
94	
111	
110	
92	
105	
94	
96	
101	
105	
94	
78	
86	
90	
87	
81	
82	
97	
94	
101	
69	
77	
95	
70	
89	
75	
77	
90	
75	
86	
77	
68	
69	
79	
85	
71	
76	
75	
75	
67	
76	
67	
62	
82	
53	
63	
62	
72	
81	
82	
79	
69	
71	
67	
78	
68	
74	
64	
55	
62	
83	
75	
68	
68	
68	
70	
66	
76	
69	
72	
78	
67	
67	
63	
60	
55	
68	
64	
59	
51	
63	
53	
63	
63	
59	
65	
57	
79	
61	
61	
53	
63	
59	
43	
51	
66	
69	
45	
55	
41	
65	
50	
73	
53	
57	
64	
52	
52	
53	
54	
55	
58	
52	
42	
64	
46	
48	
42	
49	
56	
40	
57	
49	
47	
54	
53	
53	
45	
53	
34	
46	
48	
55	
47	
54	
35	
48	
41	
57	
49	
51	
33	
53	
35	
35	
39	
49	
41	
43	
47	
43	
35	
48	
27	
39	
35	
45	
49	
33	
46	
42	
39	
39	
40	
30	
37	
36	
35	
47	
46	
37	
38	
43	
35	
46	
44	
33	
39	
32	
34	
26	
28	
50	
33	
30	
44	
37	
30	
38	
41	
35	
36	
31	
24	
37	
34	
39	
42	
27	
35	
43	
38	
25	
31	
34	
37	
33	
42	
21	
36	
27	
25	
24	
28	
42	
33	
31	
34	
33	
31	
44	
38	
31	
23	
24	
30	
25	
24	
29	
28	
32	
27	
25	
25	
29	
22	
20	
30	
29	
33	
31	
22	
24	
33	
35	
33	
18	
28	
42	
38	
33	
33	
35	
32	
26	
32	
28	
29	
28	
25	
26	
29	
28	
31	
26	
27	
31	
29	
18	
29	
29	
24	
23	
20	
34	
24	
23	
37	
26	
22	
23	
26	
30	
30	
28	
27	
26	
25	
32	
25	
22	
33	
21	
14	
30	
21	
31	
28	
24	
17	
24	
39	
17	
29	
28	
20	
21	
22	
23	
24	
31	
24	
30	
14	
20	
22	
20	
21	
27	
28	
15	
26	
17	
28	
19	
19	
21	
13	
19	
24	
15	
17	
21	
21	
19	
23	
20	
21	
19	
20	
24	
13	
28	
25	
13	
24	
20	
16	
19	
22	
16	
23	
16	
24	
19	
21	
31	
21	
19	
22	
16	
16	
21	
20	
17	
23	
10	
21	
24	
14	
25	
16	
15	
18	
17	
16	
26	
16	
24	
20	
10	
12	
13	
24	
12	
19	
21	
11	
18	
14	
19	
10	
19	
18	
14	
19	
27	
16	
18	
22	
15	
19	
19	
15	
19	
15	
19	
14	
22	
20	
15	
14	
11	
16	
21	
18	
14	
17	
12	
10	
11	
19	
15	
10	
13	
15	
14	
12	
22	
17	
18	
14	
15	
12	
15	
12	
19	
11	
14	
17	
8	
23	
13	
14	
15	
13	
13	
22	
16	
14	
10	
16	
14	
26	
16	
14	
16	
15	
13	
10	
16	
14	
12	
16	
15	
16	
12	
12	
17	
13	
15	
17	
15	
13	
15	
17	
11	
15	
14	
5	
12	
13	
15	
13	
12	
13	
11	
16	
16	
11	
11	
15	
15	
15	
10	
11	
14	
18	
14	
12	
16	
15	
17	
16	
15	
5	
16	
14	
12	
15	
9	
5	
13	
16	
9	
15	
17	
16	
14	
14	
19	
9	
13	
14	
11	
7	
7	
13	
10	
13	
21	
6	
15	
10	
12	
12	
12	
13	
9	
11	
13	
14	
14	
8	
16	
14	
14	
11	
11	
15	
6	
7	
17	
19	
11	
17	
14	
8	
11	
9	
16	
8	
13	
16	
11	
9	
12	
7	
11	
9	
13	
16	
15	
13	
16	
15	
9	
12	
4	
7	
16	
11	
13	
17	
20	
12	
14	
6	
11	
10	
3	
17	
11	
12	
11	
15	
13	
10	
12	
14	
9	
8	
10	
12	
11	
14	
6	
8	
6	
11	
5	
8	
11	
9	
13	
9	
14	
15	
15	
15	
10	
11	
11	
16	
12	
9	
13	
12	
11	
9	
17	
11	
15	
9	
11	
12	
18	
16	
8	
4	
9	
10	
13	
16	
10	
13	
9	
11	
10	
11	
12	
8	
6	
8	
10	
7	
6	
16	
11	
9	
4	
12	
19	
14	
10	
8	
11	
11	
18	
13	
8	
9	
8	
5	
17	
10	
9	
12	
8	
8	
12	
8	
6	
9	
10	
13	
11	
9	
15	
8	
4	
8	
15	
10	
11	
5	
7	
16	
10	
12	
7	
9	
8	
11	
12	
8	
11	
8	
15	
4	
8	
7	
8	
5	
14	
7	
11	
10	
16	
7	
7	
8	
3	
9	
9	
11	
5	
8	
7	
5	
10	
8	
12	
11	
10	
11	
10	
8	
7	
10	
8	
10	
9	
13	
8	
4	
5	
8	
7	
8	
7	
11	
10	
10	
6	
9	
6	
4	
8	
8	
6	
14	
4	
9	
12	
8	
5	
9	
8	
11	
7	
10	
8	
4	
4	
8	
10	
12	
11	
8	
7	
7	
12	
5	
10	
4	
4	
6	
13	
8	
9	
7	
11	
7	
7	
8	
6	
7	
6	
12	
12	
3	
11	
13	
5	
7	
4	
5	
8	
8	
6	
7	
6	
14	
9	
12	
6	
5	
10	
4	
7	
10	
6	
7	
6	
12	
6	
12	
6	
4	
5	
8	
11	
11	
11	
11	
7	
5	
12	
10	
8	
15	
8	
6	
10	
6	
7	
8	
10	
9	
11	
10	
15	
6	
10	
8	
8	
11	
8	
9	
7	
11	
3	
6	
9	
6	
7	
7	
6	
7	
7	
5	
11	
9	
9	
8	
7	
9	
7	
7	
7	
10	
10	
7	
5	
7	
6	
5	
6	
10	
2	
8	
13	
9	
7	
9	
7	
13	
7	
5	
8	
7	
6	
4	
7	
5	
7	
8	
11	
5	
9	
8	
8	
8	
7	
8	
11	
6	
7	
10	
8	
6	
7	
7	
8	
12	
9	
9	
4	
16	
7	
5	
7	
12	
11	
8	
12	
10	
11	
12	
6	
5	
7	
6	
2	
6	
9	
5	
6	
7	
7	
4	
6	
5	
7	
6	
4	
6	
4	
9	
9	
4	
3	
3	
4	
2	
9	
5	
9	
8	
5	
7	
1	
8	
7	
8	
1	
5	
7	
7	
6	
8	
11	
2	
8	
10	
4	
4	
5	
6	
8	
5	
6	
3	
4	
6	
12	
7	
8	
6	
8	
4	
3	
10	
6	
1	
6	
6	
5	
4	
7	
6	
7	
10	
5	
6	
5	
6	
3	
9	
8	
5	
8	
7	
6	
5	
6	
5	
4	
6	
7	
5	
4	
8	
6	
5	
9	
4	
6	
5	
7	
6	
4	
7	
7	
3	
5	
6	
7	
9	
9	
6	
5	
3	
5	
6	
7	
7	
3	
10	
5	
7	
7	
4	
8	
12	
4	
9	
7	
4	
13	
6	
5	
6	
7	
3	
6	
5	
6	
8	
1	
5	
5	
3	
11	
7	
3	
5	
9	
6	
11	
7	
3	
6	
4	
6	
4	
4	
7	
7	
6	
13	
9	
9	
6	
6	
4	
8	
6	
5	
7	
6	
3	
6	
3	
7	
5	
5	
5	
10	
5	
4	
6	
8	
3	
5	
2	
7	
10	
6	
6	
6	
7	
6	
6	
9	
2	
8	
6	
8	
7	
6	
6	
3	
3	
4	
6	
9	
7	
2	
7	
8	
5	
2	
7	
6	
9	
5	
6	
8	
5	
2	
4	
3	
3	
5	
4	
9	
4	
4	
2	
6	
3	
6	
3	
8	
7	
8	
6	
13	
4	
5	
4	
6	
5	
5	
11	
5	
7	
4	
5	
11	
6	
4	
6	
7	
8	
7	
4	
5	
2	
3	
6	
8	
5	
5	
6	
8	
7	
8	
2	
9	
2	
4	
8	
10	
6	
5	
4	
7	
4	
3	
7	
7	
6	
4	
5	
2	
6	
4	
4	
6	
11	
3	
3	
4	
9	
0	
10	
4	
6	
5	
11	
2	
16	
8	
2	
4	
4	
7	
7	
4	
10	
5	
3	
3	
3	
5	
6	
3	
5	
5	
4	
2	
10	
0	
4	
5	
8	
5	
6	
6	
10	
4	
8	
6	
1	
5	
6	
6	
1	
7	
7	
9	
6	
4	
6	
4	
6	
6	
4	
4	
1	
4	
5	
6	
3	
5	
6	
7	
5	
2	
3	
4	
3	
6	
8	
4	
5	
9	
1	
6	
7	
6	
1	
3	
4	
5	
2	
4	
3	
3	
4	
4	
2	
3	
4	
6	
5	
4	
3	
3	
0	
7	
7	
7	
3	
5	
5	
4	
6	
7	
2	
4	
5	
3	
8	
3	
3	
3	
4	
10	
2	
6	
7	
5	
3	
2	
7	
7	
5	
5	
2	
5	
6	
4	
6	
4	
7	
1	
4	
4	
2	
8	
9	
1	
5	
2	
2	
4	
6	
6	
5	
10	
10	
5	
3	
3	
3	
5	
4	
3	
3	
5	
7	
1	
9	
2	
7	
5	
2	
8	
3	
7	
2	
11	
5	
2	
4	
5	
2	
4	
5	
4	
10	
3	
3	
7	
3	
3	
3	
3	
4	
6	
7	
6	
5	
4	
4	
3	
6	
3	
7	
5	
5	
5	
5	
6	
14	
5	
3	
6	
7	
7	
5	
1	
5	
4	
3	
7	
2	
6	
5	
3	
2	
2	
2	
5	
2	
3	
4	
6	
8	
2	
3	
6	
8	
7	
5	
4	
7	
2	
4	
4	
7	
6	
5	
10	
6	
4	
6	
5	
3	
3	
3	
2	
4	
4	
1	
1	
3	
4	
3	
6	
2	
6	
6	
5	
3	
6	
7	
2	
3	
5	
8	
3	
2	
4	
4	
4	
2	
7	
4	
6	
5	
2	
6	
3	
9	
0	
1	
4	
1	
3	
5	
2	
7	
5	
3	
8	
9	
2	
4	
3	
1	
5	
5	
8	
8	
2	
4	
8	
3	
2	
3	
6	
7	
2	
9	
4	
6	
2	
1	
5	
2	
4	
0	
4	
9	
2	
7	
5	
10	
6	
7	
4	
5	
5	
8	
2	
2	
5	
4	
7	
5	
2	
7	
4	
3	
1	
4	
3	
4	
6	
2	
3	
5	
4	
4	
4	
6	
1	
4	
2	
2	
7	
5	
1	
3	
5	
7	
5	
4	
4	
1	
3	
3	
6	
2	
4	
3	
3	
2	
2	
1	
4	
4	
3	
5	
2	
1	
5	
7	
7	
2	
2	
5	
4	
4	
4	
3	
3	
6	
8	
9	
4	
4	
5	
3	
5	
2	
3	
5	
5	
6	
4	
2	
0	
3	
5	
3	
1	
4	
1	
4	
3	
2	
4	
7	
2	
4	
4	
9	
4	
3	
1	
4	
6	
3	
5	
6	
8	
4	
5	
2	
5	
3	
3	
7	
3	
2	
2	
6	
4	
3	
5	
5	
2	
1	
1	
3	
3	
10	
3	
3	
6	
5	
2	
3	
3	
2	
6	
3	
4	
4	
6	
2	
2	
4	
5	
2	
3	
4	
6	
6	
4	
6	
2	
3	
5	
8	
4	
8	
5	
3	
2	
4	
3	
9	
7	
9	
7	
6	
5	
5	
3	
4	
5	
7	
6	
6	
2	
4	
4	
3	
3	
3	
5	
3	
2	
3	
4	
5	
5	
3	
4	
1	
5	
3	
1	
4	
3	
6	
5	
4	
2	
2	
3	
5	
9	
3	
2	
4	
4	
5	
1	
4	
5	
4	
6	
8	
5	
5	
4	
2	
5	
3	
6	
2	
2	
5	
4	
5	
4	
4	
3	
1	
6	
4	
4	
10	
4	
3	
3	
8	
3	
5	
2	
1	
2	
5	
2	
4	
4	
6	
3	
2	
5	
7	
3	
3	
4	
3	
5	
7	
1	
5	
6	
8	
2	
3	
8	
5	
7	
4	
2	
4	
4	
1	
7	
3	
2	
5	
4	
3	
3	
3	
2	
4	
5	
3	
3	
6	
2	
4	
4	
6	
1	
3	
5	
2	
2	
3	
2	
8	
3	
6	
3	
1	
4	
5	
3	
2	
3	
4	
4	
4	
5	
1	
6	
2	
2	
6	
5	
5	
4	
0	
8	
2	
3	
2	
5	
6	
3	
3	
4	
5	
4	
1	
5	
2	
3	
5	
5	
2	
2	
3	
2	
2	
6	
3	
4	
6	
3	
4	
2	
6	
3	
6	
3	
4	
4	
3	
9	
3	
2	
2	
5	
5	
2	
2	
2	
3	
1	
3	
2	
4	
9	
4	
2	
5	
5	
5	
5	
3	
4	
2	
2	
4	
4	
2	
5	
5	
2	
4	
5	
4	
8	
2	
1	
2	
2	
3	
2	
2	
4	
2	
4	
8	
3	
5	
2	
2	
6	
3	
4	
3	
4	
4	
4	
4	
4	
4	
5	
3	
9	
2	
3	
4	
4	
3	
4	
6	
4	
4	
3	
4	
3	
4	
3	
6	
4	
2	
6	
5	
6	
3	
3	
0	
5	
3	
5	
3	
4	
4	
7	
5	
1	
4	
7	
5	
5	
4	
2	
5	
4	
8	
4	
4	
3	
3	
6	
3	
2	
1	
4	
3	
2	
4	
4	
1	
4	
6	
8	
2	
2	
3	
5	
4	
1	
4	
1	
6	
5	
3	
4	
4	
4	
5	
3	
5	
4	
4	
3	
4	
8	
4	
7	
4	
4	
2	
3	
5	
4	
4	
0	
4	
5	
5	
1	
3	
4	
5	
5	
4	
2	
0	
5	
4	
1	
3	
3	
2	
3	
4	
4	
5	
4	
4	
1	
6	
0	
1	
1	
2	
5	
3	
5	
4	
6	
7	
2	
5	
3	
1	
4	
9	
1	
4	
4	
8	
4	
3	
4	
0	
4	
4	
1	
2	
5	
3	
2	
3	
4	
2	
3	
2	
5	
4	
4	
11	
3	
2	
7	
4	
4	
3	
5	
3	
3	
8	
6	
3	
3	
8	
4	
3	
8	
4	
1	
7	
4	
5	
2	
3	
4	
2	
2	
4	
2	
5	
3	
1	
3	
4	
4	
3	
3	
5	
2	
3	
3	
4	
5	
1	
2	
5	
1	
4	
3	
3	
2	
3	
3	
3	
4	
6	
7	
5	
1	
7	
3	
4	
3	
4	
2	
5	
2	
4	
2	
1	
1	
2	
7	
3	
6	
1	
4	
4	
2	
4	
3	
5	
2	
0	
6	
2	
4	
3	
5	
4	
4	
2	
2	
2	
3	
1	
5	
4	
2	
2	
4	
5	
2	
2	
6	
3	
4	
5	
3	
2	
0	
3	
6	
4	
4	
6	
0	
2	
2	
2	
2	
3	
1	
5	
1	
3	
3	
5	
3	
8	
5	
1	
3	
3	
4	
5	
4	
5	
2	
6	
3	
3	
2	
4	
2	
7	
0	
3	
0	
4	
2	
1	
3	
1	
2	
3	
2	
5	
1	
3	
5	
1	
4	
1	
6	
2	
1	
7	
1	
5	
3	
2	
4	
0	
2	
2	
2	
1	
3	
0	
1	
3	
3	
5	
3	
2	
3	
1	
6	
7	
4	
5	
3	
0	
2	
5	
2	
4	
1	
3	
4	
2	
5	
2	
5	
4	
2	
1	
2	
5	
7	
3	
4	
3	
2	
3	
3	
3	
3	
1	
3	
4	
1	
5	
4	
4	
1	
4	
1	
2	
1	
2	
0	
1	
4	
2	
3	
4	
3	
3	
4	
6	
3	
4	
7	
3	
1	
0	
6	
2	
4	
3	
1	
4	
1	
2	
2	
4	
5	
5	
5	
4	
3	
1	
3	
4	
4	
4	
2	
2	
3	
4	
3	
4	
6	
4	
3	
1	
2	
8	
8	
1	
4	
3	
4	
3	
4	
3	
3	
0	
4	
2	
7	
2	
3	
1	
0	
1	
3	
3	
2	
4	
2	
6	
2	
3	
4	
0	
3	
3	
3	
2	
0	
5	
6	
5	
5	
4	
4	
3	
6	
3	
2	
3	
1	
7	
4	
8	
1	
2	
3	
3	
6	
5	
1	
1	
1	
4	
3	
6	
3	
4	
1	
2	
0	
1	
2	
0	
1	
4	
5	
2	
5	
4	
3	
2	
5	
4	
1	
1	
3	
2	
1	
4	
1	
5	
3	
4	
7	
4	
3	
2	
1	
3	
4	
3	
2	
6	
3	
5	
4	
4	
3	
3	
3	
1	
6	
3	
1	
0	
2	
5	
5	
2	
5	
0	
4	
1	
3	
1	
3	
2	
4	
0	
1	
5	
2	
0	
5	
4	
7	
2	
3	
1	
5	
4	
1	
6	
1	
6	
3	
5	
2	
2	
3	
4	
3	
2	
2	
6	
4	
6	
4	
3	
2	
2	
4	
2	
4	
2	
1	
2	
3	
4	
4	
1	
3	
2	
2	
2	
5	
4	
4	
4	
3	
3	
2	
4	
1	
2	
3	
4	
4	
2	
4	
2	
1	
5	
2	
4	
3	
2	
5	
4	
1	
3	
3	
5	
4	
2	
1	
2	
2	
6	
4	
3	
2	
2	
3	
2	
2	
4	
4	
4	
2	
0	
1	
2	
5	
3	
1	
3	
6	
3	
7	
5	
3	
1	
3	
5	
1	
3	
3	
2	
3	
3	
0	
5	
3	
1	
4	
3	
2	
6	
3	
3	
4	
5	
3	
2	
0	
2	
2	
3	
3	
3	
3	
3	
4	
4	
4	
3	
4	
4	
4	
5	
4	
6	
1	
5	
1	
4	
2	
3	
2	
4	
2	
2	
5	
2	
2	
5	
6	
3	
3	
2	
7	
3	
3	
2	
2	
2	
2	
0	
6	
2	
2	
2	
8	
1	
2	
3	
1	
9	
2	
1	
6	
2	
1	
4	
2	
3	
4	
6	
0	
1	
5	
5	
2	
4	
3	
6	
3	
2	
4	
2	
1	
2	
1	
0	
2	
1	
6	
2	
3	
1	
4	
3	
6	
4	
6	
4	
2	
2	
4	
2	
3	
3	
2	
4	
3	
3	
2	
2	
0	
2	
2	
6	
7	
2	
3	
7	
3	
1	
7	
2	
2	
1	
2	
3	
2	
1	
1	
6	
7	
0	
4	
3	
4	
1	
2	
1	
6	
2	
4	
0	
2	
1	
1	
5	
5	
2	
3	
3	
4	
5	
4	
5	
1	
1	
3	
7	
2	
4	
2	
6	
5	
3	
2	
2	
4	
3	
3	
4	
3	
2	
1	
1	
4	
4	
1	
4	
6	
4	
4	
2	
2	
0	
7	
5	
3	
3	
4	
4	
3	
4	
4	
4	
2	
1	
4	
1	
1	
4	
3	
2	
2	
3	
1	
1	
3	
3	
3	
5	
0	
2	
6	
0	
3	
4	
2	
2	
1	
4	
4	
2	
3	
5	
4	
1	
3	
4	
2	
4	
2	
4	
1	
2	
3	
3	
4	
6	
4	
5	
6	
1	
5	
5	
1	
3	
3	
1	
5	
3	
3	
2	
1	
5	
0	
4	
1	
3	
3	
6	
4	
1	
4	
2	
5	
0	
3	
5	
3	
3	
3	
4	
2	
5	
5	
3	
5	
7	
0	
8	
3	
6	
3	
2	
5	
3	
1	
0	
1	
0	
2	
6	
2	
6	
0	
5	
1	
2	
3	
1	
3	
8	
5	
6	
4	
2	
2	
5	
2	
3	
2	
3	
4	
4	
6	
4	
8	
3	
2	
5	
2	
5	
1	
4	
4	
4	
3	
2	
4	
2	
4	
1	
2	
1	
4	
4	
3	
3	
5	
5	
2	
0	
3	
5	
2	
4	
2	
1	
5	
1	
0	
3	
2	
3	
1	
1	
6	
4	
4	
2	
5	
1	
1	
3	
7	
5	
3	
3	
4	
1	
4	
1	
2	
3	
4	
2	
3	
4	
6	
4	
1	
5	
4	
1	
7	
4	
1	
3	
2	
2	
3	
6	
3	
2	
0	
1	
2	
5	
2	
6	
5	
4	
1	
7	
4	
4	
3	
3	
2	
2	
5	
4	
3	
3	
3	
4	
4	
1	
2	
2	
2	
5	
1	
4	
1	
2	
4	
5	
5	
3	
1	
5	
1	
2	
4	
1	
4	
4	
3	
6	
2	
3	
3	
3	
0	
4	
4	
4	
4	
0	
1	
3	
8	
4	
2	
7	
0	
7	
1	
3	
1	
3	
5	
2	
2	
3	
4	
2	
2	
4	
4	
5	
1	
3	
2	
8	
4	
5	
2	
2	
6	
4	
2	
2	
3	
3	
5	
4	
1	
2	
4	
6	
6	
7	
4	
1	
4	
6	
3	
2	
2	
5	
3	
3	
2	
4	
2	
3	
5	
5	
2	
2	
4	
2	
3	
2	
3	
2	
8	
3	
3	
4	
3	
3	
3	
1	
3	
2	
3	
2	
3	
3	
6	
1	
1	
8	
4	
2	
5	
5	
2	
3	
3	
1	
2	
4	
4	
2	
7	
1	
2	
4	
3	
3	
6	
7	
4	
4	
1	
3	
2	
5	
7	
5	
1	
1	
2	
6	
2	
1	
3	
1	
6	
7	
3	
6	
3	
6	
1	
5	
1	
5	
1	
3	
3	
7	
3	
3	
1	
1	
1	
1	
5	
9	
4	
2	
6	
4	
1	
5	
4	
3	
2	
1	
2	
1	
4	
4	
6	
0	
2	
1	
1	
4	
1	
3	
7	
3	
2	
1	
3	
1	
4	
4	
2	
4	
4	
3	
0	
0	
2	
1	
4	
3	
3	
4	
2	
5	
8	
1	
4	
4	
3	
3	
2	
3	
1	
5	
3	
3	
5	
3	
2	
4	
1	
3	
6	
1	
1	
5	
1	
1	
2	
2	
2	
4	
1	
3	
1	
2	
3	
4	
2	
3	
3	
1	
2	
2	
2	
5	
9	
7	
6	
6	
1	
4	
7	
5	
3	
2	
3	
2	
3	
4	
3	
2	
3	
5	
1	
0	
0	
0	
0	
0	
0	
0	
0	
0	
0	
0	
0	
0	
0	
0	
0	
0	
0	
0	
0	
0	
0	
0	
0	
0	
0	
0	
0	
0	
0	
0	
0	
0	
0	
