#PicoHarp 300  Histogram Data			04/20/2022 03:43:25 PM
#channels per curve
31250
#display curve no.
0	
#memory block no.
0	
#ns/channel
0.0320	
#counts
0	
0	
2	
1	
1	
0	
0	
2	
0	
1	
0	
0	
0	
1	
1	
1	
1	
2	
1	
0	
0	
1	
1	
1	
1	
1	
1	
0	
2	
1	
0	
1	
0	
0	
0	
0	
2	
1	
1	
1	
1	
0	
3	
0	
1	
2	
0	
1	
1	
1	
0	
0	
0	
0	
1	
0	
1	
1	
0	
2	
1	
1	
1	
0	
1	
0	
0	
1	
1	
3	
0	
2	
0	
0	
1	
2	
1	
0	
1	
0	
1	
0	
2	
2	
1	
0	
2	
0	
1	
1	
2	
0	
0	
2	
0	
0	
0	
1	
1	
2	
0	
2	
0	
1	
0	
1	
0	
2	
1	
0	
1	
1	
2	
0	
1	
0	
0	
2	
3	
0	
0	
3	
1	
1	
0	
0	
1	
0	
1	
1	
0	
1	
0	
1	
0	
1	
0	
1	
1	
0	
2	
0	
0	
0	
0	
0	
1	
2	
1	
0	
2	
1	
0	
3	
0	
0	
0	
1	
0	
0	
1	
2	
1	
0	
3	
4	
0	
0	
0	
1	
2	
1	
2	
0	
1	
0	
2	
1	
1	
0	
1	
0	
3	
1	
2	
0	
1	
1	
0	
1	
0	
1	
2	
1	
1	
0	
1	
4	
3	
0	
2	
1	
2	
0	
0	
1	
1	
1	
0	
0	
0	
0	
2	
1	
0	
2	
0	
2	
2	
0	
2	
3	
6	
1	
1	
2	
0	
1	
0	
0	
1	
1	
0	
0	
1	
1	
3	
2	
0	
0	
0	
0	
0	
0	
0	
1	
2	
1	
0	
0	
0	
2	
1	
1	
2	
0	
0	
2	
0	
2	
0	
1	
2	
1	
1	
1	
1	
0	
0	
1	
0	
1	
1	
0	
1	
0	
1	
0	
4	
1	
0	
3	
1	
0	
4	
1	
1	
1	
0	
0	
2	
1	
0	
0	
0	
2	
1	
1	
0	
1	
1	
1	
3	
0	
0	
0	
1	
1	
1	
0	
2	
1	
2	
1	
0	
1	
2	
1	
1	
0	
0	
1	
0	
1	
1	
1	
2	
0	
2	
0	
1	
1	
0	
0	
0	
2	
1	
1	
2	
0	
0	
0	
0	
0	
1	
1	
0	
2	
0	
2	
0	
0	
0	
1	
1	
1	
2	
0	
0	
0	
1	
1	
2	
2	
1	
0	
1	
0	
0	
0	
3	
0	
0	
2	
2	
2	
0	
1	
1	
1	
0	
2	
2	
0	
2	
0	
0	
0	
1	
0	
1	
1	
1	
0	
2	
0	
1	
2	
0	
1	
1	
2	
0	
0	
1	
0	
1	
0	
0	
2	
0	
0	
0	
0	
2	
0	
0	
0	
2	
0	
1	
1	
1	
0	
1	
1	
0	
0	
0	
1	
0	
2	
0	
1	
1	
1	
2	
1	
1	
0	
1	
2	
0	
1	
1	
1	
1	
1	
0	
1	
0	
0	
0	
0	
0	
0	
1	
2	
1	
2	
2	
1	
0	
0	
2	
0	
2	
0	
0	
1	
1	
2	
0	
1	
0	
0	
2	
1	
1	
0	
0	
0	
1	
0	
1	
2	
1	
1	
0	
1	
1	
0	
1	
0	
0	
0	
0	
1	
2	
0	
1	
1	
1	
0	
1	
1	
0	
0	
0	
0	
0	
0	
0	
1	
1	
0	
1	
1	
1	
0	
1	
1	
0	
0	
1	
0	
2	
1	
0	
0	
2	
0	
1	
0	
0	
0	
2	
0	
0	
0	
0	
1	
0	
0	
1	
1	
2	
0	
1	
0	
2	
0	
0	
1	
1	
3	
2	
0	
1	
0	
1	
1	
1	
0	
0	
0	
2	
1	
0	
2	
1	
1	
0	
0	
1	
1	
0	
0	
0	
1	
1	
0	
1	
1	
0	
0	
0	
2	
0	
1	
0	
0	
0	
2	
0	
0	
3	
0	
2	
1	
2	
0	
3	
0	
0	
2	
1	
3	
0	
1	
0	
0	
1	
0	
0	
0	
1	
2	
0	
1	
0	
0	
2	
0	
0	
0	
1	
0	
1	
0	
1	
1	
2	
1	
2	
0	
3	
0	
1	
0	
1	
1	
1	
0	
0	
0	
0	
1	
0	
0	
1	
0	
0	
1	
1	
1	
0	
1	
0	
1	
1	
0	
0	
2	
2	
3	
1	
1	
2	
0	
1	
1	
0	
2	
0	
0	
2	
1	
2	
2	
1	
2	
3	
1	
0	
0	
0	
1	
0	
2	
1	
2	
0	
0	
0	
0	
1	
3	
1	
1	
1	
1	
0	
0	
0	
1	
0	
0	
1	
2	
0	
1	
0	
0	
1	
0	
0	
4	
1	
0	
1	
2	
0	
1	
1	
1	
0	
0	
0	
2	
2	
0	
0	
1	
1	
2	
1	
0	
0	
0	
0	
2	
1	
2	
0	
0	
0	
4	
0	
0	
1	
0	
1	
2	
0	
2	
1	
2	
1	
0	
1	
1	
0	
1	
1	
1	
2	
1	
2	
2	
0	
0	
0	
2	
2	
1	
0	
0	
0	
1	
0	
0	
0	
1	
1	
2	
2	
2	
0	
2	
2	
1	
1	
2	
1	
0	
1	
2	
0	
1	
1	
1	
0	
1	
1	
1	
0	
0	
2	
1	
0	
1	
0	
1	
1	
0	
1	
2	
1	
2	
1	
1	
0	
2	
2	
3	
0	
0	
1	
0	
1	
0	
2	
0	
0	
1	
0	
2	
0	
0	
1	
0	
0	
0	
1	
0	
2	
1	
1	
0	
1	
1	
0	
1	
0	
0	
1	
0	
0	
0	
0	
1	
1	
0	
2	
4	
2	
1	
0	
1	
0	
0	
0	
0	
0	
1	
1	
1	
2	
6	
0	
0	
3	
1	
1	
2	
4	
0	
1	
1	
0	
0	
0	
2	
2	
1	
0	
1	
0	
0	
1	
0	
1	
0	
1	
0	
1	
0	
0	
1	
1	
1	
0	
1	
1	
0	
0	
1	
0	
0	
1	
0	
0	
2	
2	
0	
3	
1	
2	
1	
0	
2	
2	
0	
0	
0	
0	
1	
0	
2	
0	
1	
0	
0	
1	
3	
1	
2	
2	
1	
0	
0	
1	
0	
2	
0	
1	
1	
0	
0	
1	
2	
0	
0	
3	
6	
0	
1	
2	
5	
2	
2	
2	
4	
6	
5	
5	
4	
9	
8	
13	
13	
11	
12	
12	
16	
22	
25	
49	
46	
30	
51	
51	
58	
62	
74	
67	
92	
95	
88	
101	
120	
115	
120	
115	
144	
139	
123	
132	
140	
152	
162	
121	
138	
168	
171	
142	
165	
163	
159	
172	
180	
158	
159	
151	
155	
155	
143	
165	
165	
184	
162	
183	
155	
156	
159	
176	
155	
171	
199	
165	
154	
169	
158	
163	
161	
175	
169	
178	
181	
168	
180	
160	
172	
166	
148	
147	
172	
139	
150	
171	
182	
152	
154	
163	
133	
147	
159	
133	
154	
147	
159	
157	
155	
173	
166	
172	
162	
157	
143	
178	
149	
157	
150	
152	
164	
171	
167	
151	
138	
133	
152	
138	
137	
160	
137	
143	
148	
157	
143	
117	
161	
183	
134	
148	
141	
147	
156	
147	
133	
128	
149	
128	
136	
121	
158	
128	
161	
166	
148	
156	
120	
136	
141	
134	
119	
138	
145	
141	
126	
122	
119	
152	
128	
135	
142	
141	
127	
145	
128	
141	
130	
142	
139	
126	
146	
142	
128	
148	
136	
145	
133	
140	
138	
135	
121	
127	
98	
140	
156	
128	
150	
137	
132	
129	
143	
144	
127	
114	
136	
125	
124	
130	
128	
145	
142	
129	
119	
127	
107	
147	
144	
118	
119	
141	
130	
112	
135	
132	
117	
126	
131	
120	
127	
138	
126	
113	
122	
130	
114	
132	
123	
108	
113	
126	
141	
119	
143	
136	
133	
124	
130	
133	
142	
133	
126	
125	
124	
110	
124	
126	
123	
112	
102	
120	
134	
135	
108	
94	
124	
113	
115	
99	
116	
114	
116	
118	
98	
110	
138	
123	
102	
139	
104	
106	
123	
114	
122	
117	
114	
138	
126	
125	
132	
111	
117	
129	
130	
133	
114	
118	
121	
113	
110	
98	
104	
123	
87	
125	
119	
99	
109	
119	
102	
84	
128	
121	
104	
122	
112	
115	
108	
118	
112	
109	
113	
102	
108	
138	
106	
126	
110	
114	
111	
100	
104	
101	
94	
120	
97	
117	
108	
113	
111	
120	
118	
107	
98	
105	
117	
105	
106	
99	
106	
94	
107	
113	
103	
114	
103	
98	
97	
121	
102	
111	
111	
108	
99	
119	
112	
115	
113	
103	
100	
98	
104	
98	
112	
108	
124	
106	
113	
99	
105	
92	
101	
109	
107	
105	
98	
97	
96	
106	
100	
94	
117	
102	
118	
115	
105	
92	
109	
104	
106	
93	
119	
108	
94	
89	
99	
106	
110	
107	
107	
102	
87	
105	
109	
88	
100	
90	
98	
105	
114	
97	
107	
95	
95	
99	
103	
96	
111	
96	
116	
91	
91	
96	
104	
106	
96	
99	
87	
116	
99	
102	
92	
79	
101	
92	
95	
94	
87	
106	
87	
90	
88	
88	
109	
107	
90	
102	
92	
109	
86	
108	
90	
91	
90	
110	
90	
88	
89	
92	
101	
94	
103	
93	
96	
111	
91	
100	
71	
84	
92	
92	
82	
119	
73	
105	
105	
92	
96	
97	
106	
83	
70	
87	
107	
91	
97	
98	
83	
92	
108	
80	
82	
94	
94	
92	
97	
99	
104	
91	
76	
93	
89	
82	
94	
98	
88	
92	
92	
83	
89	
94	
90	
82	
92	
94	
79	
82	
93	
90	
95	
96	
72	
79	
83	
94	
77	
104	
82	
97	
99	
104	
94	
77	
85	
75	
92	
76	
102	
91	
105	
95	
83	
76	
95	
78	
97	
88	
80	
84	
99	
82	
74	
88	
83	
88	
96	
93	
71	
92	
76	
92	
76	
91	
66	
92	
73	
88	
78	
87	
84	
68	
96	
86	
84	
79	
84	
66	
99	
79	
72	
84	
76	
79	
89	
88	
74	
97	
77	
81	
78	
71	
95	
84	
82	
81	
73	
84	
75	
85	
94	
82	
74	
79	
74	
97	
85	
87	
74	
112	
75	
71	
78	
67	
78	
85	
72	
94	
64	
86	
90	
102	
82	
80	
74	
80	
76	
72	
62	
81	
90	
79	
88	
75	
72	
83	
83	
85	
58	
64	
69	
82	
77	
79	
71	
84	
77	
80	
72	
80	
81	
77	
78	
78	
71	
75	
90	
96	
80	
79	
75	
94	
80	
72	
83	
83	
90	
85	
80	
79	
82	
84	
91	
77	
85	
62	
71	
72	
74	
82	
63	
79	
72	
75	
75	
67	
85	
74	
96	
68	
66	
65	
77	
67	
70	
61	
74	
77	
65	
65	
81	
72	
80	
78	
74	
74	
88	
81	
65	
68	
54	
75	
71	
59	
72	
93	
67	
71	
71	
82	
75	
96	
67	
81	
74	
71	
85	
70	
91	
78	
70	
81	
68	
74	
82	
56	
63	
73	
82	
69	
87	
66	
74	
73	
88	
62	
78	
69	
72	
62	
77	
65	
64	
64	
67	
64	
79	
74	
76	
88	
74	
88	
82	
66	
72	
72	
72	
77	
69	
77	
63	
71	
69	
63	
71	
74	
69	
55	
75	
82	
80	
77	
77	
84	
66	
87	
67	
73	
59	
60	
59	
60	
68	
73	
77	
70	
66	
69	
73	
66	
84	
64	
89	
60	
79	
67	
82	
58	
56	
75	
62	
72	
55	
90	
73	
66	
62	
69	
66	
78	
64	
61	
79	
79	
68	
60	
70	
62	
77	
79	
63	
65	
58	
84	
55	
73	
49	
73	
73	
66	
67	
59	
61	
67	
49	
67	
62	
68	
56	
57	
59	
63	
74	
66	
78	
62	
61	
75	
83	
66	
66	
62	
59	
70	
73	
59	
58	
62	
66	
73	
47	
67	
63	
72	
48	
52	
85	
50	
57	
52	
69	
51	
68	
66	
66	
57	
77	
78	
71	
54	
68	
51	
66	
60	
64	
64	
67	
60	
66	
80	
62	
67	
81	
71	
68	
49	
66	
73	
61	
66	
63	
66	
66	
59	
74	
68	
60	
62	
59	
58	
67	
69	
65	
69	
55	
53	
63	
73	
60	
73	
74	
80	
67	
66	
56	
73	
57	
65	
62	
62	
69	
58	
69	
47	
64	
68	
66	
52	
66	
54	
73	
50	
45	
58	
54	
54	
49	
77	
78	
56	
58	
73	
63	
56	
73	
62	
56	
51	
67	
57	
55	
75	
60	
64	
61	
60	
46	
67	
64	
47	
61	
54	
47	
56	
55	
64	
62	
56	
51	
57	
66	
55	
64	
47	
56	
57	
57	
51	
66	
54	
69	
52	
55	
54	
62	
59	
59	
71	
56	
58	
67	
58	
53	
54	
65	
59	
63	
61	
53	
62	
57	
55	
58	
61	
47	
60	
66	
68	
55	
70	
56	
51	
59	
44	
48	
54	
71	
40	
50	
45	
63	
54	
51	
47	
60	
59	
54	
65	
62	
46	
53	
54	
55	
55	
62	
59	
53	
68	
72	
61	
49	
58	
48	
50	
71	
50	
44	
58	
55	
64	
72	
53	
67	
48	
58	
47	
58	
53	
49	
52	
62	
57	
48	
47	
58	
43	
58	
45	
73	
46	
56	
53	
64	
56	
38	
61	
58	
66	
58	
59	
56	
51	
66	
50	
59	
68	
45	
59	
35	
70	
38	
52	
52	
58	
49	
49	
56	
47	
50	
57	
65	
49	
51	
58	
43	
56	
62	
51	
52	
49	
46	
65	
40	
46	
51	
52	
61	
54	
50	
49	
53	
55	
54	
53	
39	
44	
51	
68	
54	
51	
44	
66	
50	
65	
72	
56	
62	
40	
62	
45	
55	
55	
44	
54	
51	
58	
57	
53	
69	
49	
59	
55	
59	
53	
53	
49	
51	
59	
56	
67	
44	
53	
49	
49	
49	
43	
49	
42	
48	
59	
59	
54	
55	
45	
45	
46	
49	
50	
66	
41	
50	
49	
44	
54	
56	
55	
39	
35	
42	
57	
56	
59	
52	
37	
47	
50	
52	
61	
52	
52	
55	
52	
46	
52	
48	
50	
61	
37	
50	
49	
49	
47	
51	
60	
39	
41	
45	
44	
51	
42	
39	
43	
50	
44	
49	
39	
43	
55	
50	
42	
46	
48	
50	
50	
43	
56	
60	
60	
43	
46	
48	
58	
55	
53	
37	
54	
44	
48	
51	
46	
44	
46	
52	
56	
45	
48	
49	
29	
53	
53	
55	
45	
38	
47	
61	
40	
47	
48	
51	
42	
52	
41	
46	
50	
35	
45	
38	
40	
48	
51	
38	
43	
46	
47	
51	
55	
59	
49	
59	
49	
55	
49	
52	
48	
43	
48	
50	
45	
54	
34	
42	
33	
41	
38	
49	
31	
47	
38	
44	
34	
55	
42	
52	
47	
40	
46	
54	
48	
45	
51	
33	
44	
44	
51	
53	
40	
31	
46	
51	
49	
42	
42	
57	
52	
33	
31	
47	
54	
51	
37	
48	
49	
61	
46	
58	
46	
49	
43	
43	
49	
55	
55	
42	
39	
35	
41	
50	
44	
35	
42	
43	
51	
36	
49	
44	
41	
51	
56	
43	
40	
45	
41	
46	
59	
43	
51	
43	
36	
50	
47	
52	
32	
58	
47	
51	
42	
48	
39	
43	
30	
39	
48	
56	
49	
47	
55	
43	
47	
48	
32	
55	
28	
35	
34	
37	
42	
42	
44	
44	
53	
38	
43	
35	
36	
34	
37	
51	
39	
39	
44	
52	
34	
50	
36	
43	
47	
43	
43	
44	
37	
42	
51	
30	
46	
44	
52	
34	
42	
38	
41	
40	
41	
49	
41	
40	
42	
32	
37	
45	
39	
35	
42	
39	
46	
45	
44	
53	
38	
44	
39	
47	
32	
46	
50	
40	
46	
54	
49	
40	
42	
36	
35	
40	
45	
38	
51	
35	
36	
31	
42	
42	
41	
44	
35	
48	
40	
37	
43	
36	
40	
45	
41	
42	
36	
33	
37	
51	
42	
49	
41	
42	
32	
49	
49	
38	
44	
48	
41	
45	
43	
42	
27	
42	
44	
36	
30	
46	
39	
43	
41	
39	
43	
35	
41	
48	
36	
39	
37	
41	
47	
33	
32	
43	
35	
42	
44	
47	
48	
39	
35	
35	
41	
48	
38	
40	
35	
49	
33	
35	
37	
40	
38	
40	
47	
33	
46	
36	
37	
32	
44	
25	
39	
32	
41	
40	
30	
41	
41	
45	
40	
47	
35	
36	
31	
43	
48	
43	
41	
48	
33	
39	
39	
32	
30	
30	
40	
40	
44	
31	
43	
34	
41	
35	
31	
36	
44	
32	
37	
35	
46	
27	
36	
43	
33	
38	
26	
41	
36	
40	
35	
32	
41	
32	
37	
41	
45	
42	
36	
31	
24	
45	
39	
39	
36	
39	
39	
37	
38	
45	
33	
40	
39	
33	
40	
34	
40	
43	
42	
34	
37	
37	
36	
37	
43	
29	
26	
38	
25	
30	
32	
37	
39	
37	
35	
27	
36	
33	
42	
39	
29	
46	
31	
37	
35	
35	
41	
25	
33	
41	
37	
43	
34	
33	
45	
37	
44	
38	
34	
26	
40	
36	
42	
39	
32	
36	
34	
34	
40	
39	
24	
29	
33	
37	
32	
22	
37	
37	
32	
44	
38	
44	
59	
36	
36	
46	
31	
35	
44	
33	
32	
46	
42	
28	
41	
35	
26	
26	
40	
46	
27	
37	
34	
38	
36	
31	
28	
41	
40	
31	
40	
35	
34	
35	
50	
35	
25	
25	
32	
33	
32	
33	
40	
30	
31	
34	
40	
36	
51	
39	
50	
28	
30	
35	
33	
33	
39	
36	
24	
31	
41	
36	
39	
36	
38	
28	
28	
40	
37	
31	
27	
38	
26	
32	
35	
38	
23	
36	
37	
37	
38	
35	
30	
35	
31	
33	
53	
33	
35	
38	
35	
32	
40	
30	
31	
32	
33	
44	
32	
28	
36	
37	
27	
27	
37	
36	
33	
35	
37	
36	
35	
38	
40	
34	
34	
35	
38	
32	
45	
36	
37	
33	
27	
37	
38	
34	
34	
46	
49	
25	
29	
34	
35	
43	
31	
42	
29	
28	
25	
37	
31	
39	
24	
24	
27	
25	
39	
23	
29	
35	
36	
24	
27	
31	
29	
30	
36	
32	
28	
34	
37	
33	
29	
31	
29	
32	
45	
49	
31	
42	
36	
44	
32	
35	
46	
31	
30	
31	
24	
23	
34	
30	
26	
33	
28	
31	
29	
24	
38	
31	
26	
38	
33	
31	
34	
28	
23	
33	
29	
30	
30	
29	
28	
36	
22	
29	
30	
22	
31	
34	
25	
33	
29	
31	
32	
28	
23	
28	
30	
31	
30	
29	
30	
40	
41	
27	
30	
37	
28	
49	
25	
35	
29	
27	
35	
35	
30	
35	
35	
25	
31	
30	
30	
23	
33	
29	
26	
32	
34	
30	
31	
31	
38	
32	
32	
33	
32	
33	
26	
28	
29	
38	
29	
34	
23	
38	
36	
19	
34	
29	
26	
33	
30	
45	
30	
31	
33	
24	
30	
26	
29	
34	
34	
29	
28	
32	
25	
26	
23	
27	
34	
21	
32	
29	
28	
24	
31	
34	
28	
38	
29	
28	
41	
24	
26	
30	
44	
30	
44	
39	
35	
38	
33	
39	
37	
38	
40	
36	
36	
31	
34	
15	
38	
34	
26	
37	
31	
26	
27	
20	
21	
36	
31	
38	
20	
27	
27	
26	
35	
26	
22	
27	
34	
32	
32	
23	
36	
28	
31	
29	
30	
29	
20	
25	
30	
25	
25	
20	
28	
32	
31	
31	
25	
32	
32	
32	
20	
21	
31	
36	
27	
31	
27	
29	
31	
28	
28	
27	
29	
24	
30	
28	
30	
27	
27	
22	
35	
32	
31	
19	
32	
37	
30	
26	
26	
36	
30	
31	
25	
24	
28	
31	
30	
26	
24	
27	
26	
31	
22	
23	
31	
29	
29	
31	
23	
31	
23	
30	
39	
32	
29	
27	
22	
23	
25	
36	
32	
31	
34	
33	
30	
19	
25	
25	
19	
26	
31	
26	
26	
27	
25	
27	
25	
27	
25	
26	
21	
28	
20	
33	
34	
29	
25	
24	
19	
19	
20	
28	
32	
22	
28	
22	
25	
32	
30	
24	
27	
24	
24	
26	
23	
22	
27	
36	
22	
25	
44	
38	
23	
24	
30	
21	
24	
23	
25	
28	
29	
22	
23	
15	
47	
26	
26	
33	
27	
27	
26	
23	
26	
19	
26	
37	
31	
31	
26	
25	
33	
26	
23	
27	
33	
26	
31	
26	
34	
27	
30	
27	
28	
23	
29	
27	
29	
30	
18	
27	
20	
26	
21	
19	
33	
24	
19	
22	
30	
20	
29	
25	
30	
24	
31	
22	
15	
30	
31	
25	
39	
23	
29	
21	
30	
20	
31	
24	
27	
20	
22	
39	
23	
39	
23	
27	
23	
29	
28	
27	
28	
30	
19	
38	
24	
25	
28	
28	
34	
23	
26	
20	
23	
27	
30	
28	
25	
23	
27	
17	
26	
22	
30	
27	
24	
25	
23	
25	
20	
25	
24	
29	
13	
15	
28	
31	
15	
24	
26	
21	
26	
25	
22	
22	
28	
14	
21	
22	
34	
33	
21	
30	
29	
26	
24	
28	
27	
27	
31	
20	
25	
26	
22	
25	
17	
23	
36	
22	
24	
24	
19	
35	
32	
26	
20	
24	
20	
26	
30	
27	
26	
24	
23	
30	
27	
31	
15	
33	
18	
19	
24	
27	
15	
24	
22	
30	
26	
27	
26	
17	
23	
20	
30	
26	
28	
19	
25	
26	
17	
20	
20	
28	
15	
18	
29	
31	
23	
27	
29	
26	
23	
20	
13	
23	
25	
23	
18	
29	
22	
24	
25	
23	
18	
32	
28	
23	
34	
26	
25	
21	
28	
21	
11	
18	
13	
22	
28	
24	
22	
21	
20	
16	
22	
21	
31	
30	
14	
25	
32	
23	
13	
17	
24	
19	
22	
25	
27	
25	
24	
21	
25	
27	
28	
19	
16	
22	
26	
26	
33	
29	
26	
25	
14	
30	
22	
16	
22	
23	
18	
23	
27	
22	
16	
22	
22	
26	
22	
31	
24	
21	
21	
21	
20	
28	
20	
25	
24	
25	
21	
21	
32	
21	
20	
23	
27	
24	
40	
25	
17	
20	
19	
22	
23	
23	
20	
16	
26	
22	
18	
16	
25	
28	
20	
15	
16	
23	
19	
25	
16	
28	
25	
25	
23	
23	
23	
23	
19	
22	
22	
14	
23	
22	
20	
23	
21	
27	
18	
26	
20	
19	
21	
30	
23	
24	
14	
19	
22	
25	
20	
29	
24	
19	
23	
24	
20	
23	
18	
36	
17	
21	
18	
29	
22	
24	
21	
32	
23	
24	
22	
22	
25	
28	
24	
24	
23	
30	
25	
19	
23	
25	
16	
23	
21	
10	
18	
29	
22	
13	
23	
25	
16	
27	
21	
20	
18	
19	
14	
17	
22	
23	
18	
24	
18	
14	
11	
22	
27	
35	
25	
13	
31	
16	
23	
20	
30	
23	
26	
16	
26	
24	
15	
28	
28	
17	
20	
9	
22	
23	
19	
21	
25	
28	
23	
25	
29	
19	
25	
14	
21	
21	
22	
21	
23	
23	
16	
18	
24	
18	
23	
14	
20	
17	
19	
24	
25	
12	
30	
26	
18	
28	
34	
18	
19	
24	
16	
23	
27	
18	
18	
19	
29	
20	
30	
18	
11	
21	
18	
22	
20	
28	
19	
19	
15	
24	
25	
18	
22	
23	
18	
17	
23	
23	
16	
16	
17	
19	
23	
20	
27	
28	
21	
22	
22	
18	
22	
26	
22	
24	
19	
28	
21	
13	
20	
24	
22	
17	
20	
14	
20	
22	
9	
12	
21	
25	
20	
24	
14	
19	
18	
22	
14	
24	
24	
20	
21	
23	
22	
17	
30	
25	
15	
22	
26	
23	
20	
24	
17	
25	
20	
22	
22	
25	
17	
23	
20	
15	
22	
17	
17	
27	
30	
17	
27	
27	
25	
16	
21	
24	
22	
30	
24	
19	
22	
12	
24	
18	
20	
16	
20	
19	
23	
19	
17	
19	
20	
18	
18	
25	
12	
13	
21	
21	
18	
20	
21	
26	
17	
23	
20	
27	
22	
14	
15	
15	
19	
20	
19	
13	
21	
21	
18	
21	
21	
21	
16	
21	
25	
15	
34	
25	
18	
21	
23	
28	
20	
16	
22	
17	
21	
14	
20	
14	
27	
24	
15	
27	
27	
18	
13	
28	
22	
17	
22	
16	
25	
19	
14	
18	
25	
22	
29	
19	
14	
26	
18	
19	
24	
20	
17	
17	
21	
28	
20	
26	
18	
15	
15	
28	
16	
18	
22	
20	
20	
15	
23	
16	
13	
22	
21	
13	
16	
22	
13	
16	
19	
20	
20	
16	
20	
24	
24	
21	
22	
26	
8	
17	
15	
17	
21	
13	
17	
25	
27	
21	
13	
15	
9	
14	
17	
17	
19	
20	
17	
21	
15	
19	
18	
16	
25	
24	
25	
18	
22	
23	
15	
23	
10	
18	
25	
19	
12	
23	
18	
23	
24	
18	
17	
17	
22	
19	
21	
23	
17	
24	
17	
21	
18	
15	
16	
15	
18	
19	
18	
12	
14	
19	
18	
21	
16	
21	
12	
16	
23	
21	
23	
21	
19	
18	
14	
26	
12	
12	
17	
16	
25	
21	
29	
15	
21	
18	
17	
19	
19	
18	
14	
16	
11	
16	
22	
20	
21	
21	
25	
11	
16	
16	
19	
19	
23	
20	
11	
17	
20	
15	
23	
12	
15	
16	
24	
19	
22	
18	
26	
14	
15	
19	
27	
14	
13	
24	
26	
22	
18	
19	
16	
22	
19	
19	
25	
18	
13	
16	
13	
19	
18	
18	
10	
21	
24	
19	
30	
14	
19	
16	
18	
13	
19	
20	
20	
19	
15	
10	
15	
23	
16	
17	
34	
17	
19	
15	
19	
18	
14	
18	
17	
17	
22	
15	
22	
19	
9	
22	
17	
14	
14	
17	
9	
17	
19	
14	
19	
16	
15	
19	
23	
14	
20	
20	
14	
21	
24	
22	
22	
17	
21	
20	
13	
19	
11	
22	
22	
17	
15	
17	
16	
20	
24	
12	
13	
19	
18	
21	
19	
15	
17	
24	
14	
22	
17	
22	
20	
27	
12	
20	
15	
16	
10	
16	
21	
8	
15	
20	
17	
23	
21	
11	
22	
15	
15	
17	
19	
12	
14	
17	
18	
24	
13	
24	
13	
11	
17	
19	
18	
17	
7	
17	
13	
14	
19	
10	
13	
22	
17	
21	
22	
19	
14	
19	
17	
16	
18	
16	
15	
11	
17	
20	
19	
13	
16	
14	
23	
17	
16	
9	
12	
16	
15	
16	
23	
16	
19	
13	
23	
21	
21	
18	
19	
12	
25	
12	
13	
13	
17	
14	
20	
18	
11	
9	
15	
17	
18	
21	
11	
23	
12	
18	
15	
16	
16	
23	
19	
16	
16	
8	
18	
16	
16	
13	
16	
13	
13	
22	
17	
13	
18	
16	
22	
13	
24	
12	
18	
21	
16	
14	
13	
15	
16	
18	
26	
7	
18	
23	
21	
12	
19	
7	
15	
18	
13	
17	
11	
15	
20	
19	
15	
15	
16	
14	
15	
12	
16	
19	
13	
16	
15	
15	
15	
12	
20	
15	
19	
15	
18	
7	
5	
16	
27	
15	
21	
17	
19	
17	
15	
17	
10	
15	
11	
27	
18	
21	
20	
22	
18	
11	
16	
14	
18	
18	
20	
19	
14	
22	
12	
11	
17	
15	
13	
19	
16	
8	
15	
13	
16	
14	
16	
19	
12	
21	
15	
18	
18	
22	
17	
17	
16	
15	
19	
15	
11	
9	
12	
12	
20	
21	
16	
21	
16	
16	
18	
16	
14	
16	
17	
14	
12	
14	
16	
24	
14	
13	
12	
11	
15	
18	
16	
14	
18	
15	
18	
20	
18	
18	
11	
7	
14	
15	
14	
14	
14	
11	
11	
15	
14	
16	
27	
24	
14	
11	
14	
16	
13	
16	
12	
21	
12	
12	
15	
9	
12	
12	
18	
17	
10	
15	
10	
11	
13	
10	
14	
14	
16	
20	
18	
23	
8	
13	
10	
16	
12	
16	
18	
14	
13	
13	
11	
15	
7	
25	
19	
13	
14	
17	
11	
19	
18	
11	
14	
14	
20	
19	
9	
11	
13	
12	
15	
9	
11	
13	
16	
12	
16	
13	
18	
11	
14	
20	
20	
14	
17	
16	
17	
13	
17	
14	
7	
16	
15	
6	
9	
9	
22	
19	
15	
12	
9	
16	
14	
9	
12	
14	
13	
11	
13	
14	
11	
21	
17	
10	
16	
12	
13	
11	
12	
15	
12	
16	
18	
13	
21	
16	
15	
11	
10	
19	
15	
16	
9	
16	
23	
9	
18	
23	
10	
10	
14	
16	
13	
10	
18	
11	
16	
21	
14	
9	
17	
10	
14	
16	
15	
21	
17	
18	
12	
16	
7	
10	
15	
12	
12	
13	
17	
9	
13	
13	
20	
13	
21	
19	
14	
11	
14	
16	
13	
12	
18	
15	
8	
12	
12	
11	
9	
21	
18	
14	
13	
15	
18	
11	
14	
12	
17	
12	
12	
9	
20	
12	
13	
13	
17	
12	
11	
12	
16	
14	
13	
17	
11	
15	
7	
20	
17	
19	
13	
15	
14	
13	
15	
17	
11	
12	
18	
9	
11	
16	
11	
17	
23	
14	
13	
17	
17	
21	
12	
15	
15	
15	
19	
15	
13	
9	
15	
16	
15	
17	
17	
14	
20	
18	
17	
15	
11	
15	
18	
10	
15	
9	
9	
20	
14	
15	
9	
18	
12	
14	
6	
18	
12	
14	
12	
15	
15	
14	
9	
10	
16	
15	
12	
13	
13	
20	
12	
14	
15	
15	
15	
21	
9	
15	
13	
13	
11	
11	
9	
22	
15	
8	
18	
14	
13	
18	
15	
13	
11	
14	
13	
11	
11	
16	
9	
15	
14	
20	
14	
14	
10	
8	
13	
13	
11	
13	
13	
7	
9	
5	
15	
12	
12	
13	
17	
13	
17	
9	
13	
16	
20	
16	
11	
16	
9	
13	
6	
15	
16	
10	
12	
12	
17	
16	
19	
10	
13	
16	
16	
11	
28	
13	
14	
15	
11	
13	
13	
16	
12	
13	
20	
15	
8	
10	
10	
11	
14	
16	
14	
9	
9	
14	
16	
21	
16	
12	
9	
15	
24	
8	
20	
16	
16	
11	
17	
8	
9	
14	
18	
10	
11	
13	
16	
10	
12	
14	
15	
18	
9	
15	
11	
9	
12	
10	
10	
14	
16	
18	
11	
4	
15	
11	
12	
12	
14	
13	
12	
13	
16	
12	
11	
12	
12	
15	
10	
17	
12	
7	
14	
13	
10	
6	
10	
12	
18	
12	
12	
12	
12	
13	
13	
12	
12	
10	
13	
13	
16	
6	
13	
8	
12	
12	
13	
17	
18	
11	
9	
9	
11	
17	
13	
13	
12	
11	
10	
7	
12	
10	
13	
13	
12	
23	
10	
13	
6	
5	
23	
8	
13	
6	
12	
10	
12	
8	
17	
19	
8	
13	
11	
9	
10	
14	
17	
9	
12	
14	
14	
12	
16	
9	
11	
19	
14	
18	
9	
14	
12	
20	
11	
14	
13	
10	
17	
19	
17	
10	
16	
14	
11	
13	
6	
10	
13	
19	
13	
13	
16	
16	
7	
13	
20	
16	
15	
10	
10	
14	
13	
12	
18	
10	
15	
12	
12	
12	
11	
15	
12	
11	
9	
12	
16	
15	
12	
9	
12	
10	
10	
16	
9	
10	
17	
13	
10	
14	
10	
12	
3	
10	
10	
8	
7	
13	
8	
16	
5	
11	
13	
17	
8	
8	
13	
10	
13	
11	
10	
12	
8	
16	
13	
8	
8	
14	
13	
8	
14	
16	
10	
8	
6	
11	
11	
11	
12	
11	
8	
15	
10	
8	
9	
12	
13	
15	
11	
11	
15	
13	
10	
4	
8	
18	
14	
15	
11	
10	
9	
12	
9	
9	
17	
7	
10	
7	
9	
9	
16	
21	
10	
10	
11	
12	
10	
8	
10	
13	
11	
13	
11	
7	
15	
12	
21	
12	
15	
8	
12	
9	
17	
7	
11	
12	
12	
14	
10	
8	
12	
13	
13	
9	
12	
12	
13	
14	
14	
8	
10	
10	
8	
11	
8	
10	
16	
14	
12	
13	
10	
17	
11	
6	
13	
7	
14	
12	
8	
17	
14	
8	
11	
12	
12	
18	
15	
9	
7	
13	
9	
18	
11	
9	
15	
9	
9	
15	
7	
12	
6	
10	
17	
12	
19	
12	
12	
8	
14	
15	
7	
14	
13	
10	
17	
8	
11	
12	
16	
13	
12	
11	
10	
10	
13	
17	
11	
9	
14	
13	
7	
12	
10	
11	
13	
15	
10	
10	
13	
10	
7	
8	
15	
13	
16	
8	
6	
12	
5	
16	
9	
13	
13	
13	
5	
14	
7	
10	
8	
7	
9	
11	
9	
12	
9	
11	
8	
12	
7	
10	
11	
9	
15	
12	
8	
15	
12	
16	
11	
10	
8	
14	
10	
14	
13	
13	
10	
10	
10	
19	
15	
13	
14	
11	
9	
8	
12	
11	
9	
11	
9	
7	
8	
16	
12	
14	
10	
11	
14	
10	
5	
14	
9	
15	
6	
13	
17	
8	
11	
9	
13	
13	
16	
13	
11	
12	
11	
11	
9	
11	
10	
7	
15	
10	
10	
12	
18	
10	
7	
9	
10	
9	
5	
11	
5	
10	
12	
9	
8	
10	
19	
9	
7	
10	
9	
16	
13	
6	
9	
12	
11	
7	
12	
11	
13	
8	
10	
13	
7	
16	
10	
11	
13	
9	
10	
13	
8	
9	
13	
8	
13	
10	
18	
12	
9	
9	
11	
16	
10	
11	
13	
8	
7	
16	
18	
7	
11	
11	
12	
7	
11	
15	
11	
11	
12	
16	
5	
9	
16	
2	
8	
9	
11	
9	
8	
10	
7	
8	
13	
11	
7	
2	
9	
19	
7	
15	
10	
11	
7	
11	
14	
16	
12	
15	
10	
9	
13	
6	
15	
14	
11	
14	
12	
8	
11	
6	
5	
8	
7	
10	
9	
7	
9	
8	
11	
5	
9	
17	
12	
9	
13	
8	
12	
14	
5	
18	
12	
5	
11	
11	
14	
8	
10	
7	
10	
5	
12	
14	
7	
9	
9	
15	
9	
9	
17	
13	
9	
11	
20	
9	
9	
13	
12	
15	
10	
6	
11	
8	
14	
12	
17	
9	
10	
7	
12	
12	
12	
9	
12	
6	
10	
8	
12	
13	
10	
13	
8	
13	
11	
4	
11	
12	
13	
8	
8	
10	
9	
4	
18	
8	
12	
6	
12	
3	
7	
13	
15	
12	
9	
7	
11	
12	
6	
8	
8	
8	
20	
6	
16	
13	
6	
11	
7	
10	
9	
10	
10	
10	
7	
8	
8	
12	
9	
12	
12	
8	
8	
11	
7	
7	
7	
7	
15	
6	
14	
11	
12	
2	
6	
11	
10	
9	
10	
12	
14	
15	
9	
7	
12	
10	
9	
15	
12	
9	
9	
12	
11	
11	
12	
11	
10	
8	
11	
8	
5	
10	
8	
8	
13	
6	
9	
7	
18	
9	
14	
11	
9	
9	
6	
11	
13	
7	
11	
11	
10	
10	
12	
15	
19	
8	
10	
7	
9	
13	
8	
8	
7	
9	
7	
14	
13	
10	
14	
11	
10	
7	
8	
9	
8	
7	
14	
10	
13	
16	
11	
14	
6	
12	
10	
16	
8	
4	
16	
10	
16	
11	
5	
12	
12	
5	
11	
7	
10	
17	
8	
9	
15	
15	
7	
13	
13	
12	
12	
13	
10	
10	
7	
8	
11	
11	
10	
16	
7	
10	
8	
10	
9	
13	
18	
11	
7	
9	
6	
7	
3	
9	
12	
4	
8	
5	
10	
11	
10	
9	
1	
10	
8	
17	
7	
10	
10	
9	
9	
8	
11	
12	
7	
6	
12	
7	
6	
11	
6	
4	
11	
7	
16	
14	
6	
12	
12	
8	
6	
8	
7	
9	
4	
8	
5	
13	
7	
7	
15	
12	
4	
6	
10	
9	
13	
10	
10	
8	
12	
7	
12	
15	
12	
11	
6	
12	
7	
4	
7	
10	
8	
10	
9	
8	
10	
13	
14	
10	
9	
7	
11	
5	
11	
4	
8	
5	
14	
8	
8	
5	
7	
5	
11	
7	
11	
14	
6	
6	
6	
9	
17	
16	
15	
8	
16	
9	
11	
4	
11	
10	
8	
14	
7	
6	
3	
15	
8	
10	
8	
17	
13	
5	
14	
9	
4	
12	
7	
10	
3	
8	
13	
9	
5	
14	
11	
13	
4	
10	
7	
9	
13	
11	
9	
11	
2	
5	
12	
5	
18	
8	
11	
9	
8	
8	
5	
8	
4	
11	
9	
10	
11	
16	
9	
7	
8	
9	
8	
10	
14	
11	
9	
5	
6	
7	
9	
11	
7	
6	
1	
9	
11	
12	
4	
8	
10	
13	
6	
1	
8	
10	
9	
10	
10	
15	
10	
14	
10	
8	
12	
6	
4	
4	
6	
7	
9	
9	
8	
9	
9	
8	
7	
7	
12	
12	
9	
7	
11	
11	
10	
15	
6	
11	
8	
8	
9	
13	
7	
11	
6	
11	
10	
2	
4	
13	
8	
8	
8	
9	
9	
9	
11	
10	
11	
10	
12	
13	
14	
6	
8	
12	
2	
10	
7	
7	
11	
5	
8	
11	
11	
8	
5	
12	
8	
12	
12	
10	
8	
5	
11	
6	
10	
12	
7	
12	
5	
9	
7	
8	
6	
6	
10	
13	
6	
7	
11	
14	
7	
8	
13	
7	
5	
7	
10	
10	
12	
13	
9	
4	
6	
10	
10	
4	
8	
10	
6	
7	
4	
4	
5	
11	
12	
9	
6	
14	
10	
10	
9	
9	
11	
4	
7	
8	
13	
7	
11	
12	
10	
11	
12	
7	
13	
11	
8	
10	
7	
10	
7	
8	
12	
8	
8	
6	
17	
5	
6	
8	
12	
11	
7	
9	
5	
7	
6	
8	
4	
14	
10	
11	
8	
9	
14	
10	
10	
11	
8	
12	
10	
12	
9	
11	
6	
11	
5	
10	
6	
6	
9	
10	
14	
6	
8	
6	
6	
12	
12	
7	
13	
11	
9	
6	
9	
9	
5	
5	
9	
10	
9	
5	
12	
15	
6	
5	
7	
11	
10	
9	
7	
10	
12	
6	
13	
5	
7	
7	
4	
9	
10	
7	
7	
8	
6	
13	
13	
6	
10	
7	
11	
5	
5	
7	
6	
12	
8	
10	
8	
4	
11	
9	
6	
5	
6	
14	
10	
8	
7	
7	
4	
8	
9	
7	
5	
6	
7	
6	
3	
8	
14	
4	
10	
8	
6	
9	
8	
7	
15	
7	
9	
7	
8	
10	
6	
13	
7	
6	
4	
10	
3	
4	
9	
8	
4	
12	
5	
13	
8	
9	
6	
10	
7	
6	
8	
9	
8	
8	
8	
15	
7	
10	
5	
9	
9	
9	
7	
12	
11	
4	
2	
6	
6	
9	
8	
8	
7	
15	
8	
7	
14	
8	
4	
8	
11	
11	
11	
9	
11	
6	
8	
9	
6	
9	
5	
6	
6	
11	
9	
3	
8	
5	
7	
5	
7	
11	
11	
8	
9	
11	
9	
8	
4	
7	
10	
6	
4	
8	
11	
9	
4	
10	
5	
12	
7	
7	
5	
5	
8	
11	
11	
8	
9	
9	
8	
12	
4	
7	
9	
13	
7	
12	
8	
7	
8	
12	
7	
9	
10	
9	
1	
10	
9	
8	
6	
6	
4	
2	
4	
8	
12	
10	
14	
6	
7	
8	
6	
6	
9	
5	
10	
6	
9	
11	
3	
4	
10	
17	
8	
9	
11	
12	
12	
6	
3	
8	
5	
5	
10	
7	
4	
2	
5	
10	
6	
8	
8	
10	
9	
3	
6	
7	
10	
4	
7	
5	
7	
8	
5	
7	
9	
4	
11	
11	
10	
6	
2	
6	
4	
4	
17	
14	
10	
3	
9	
6	
8	
9	
9	
8	
2	
5	
9	
5	
9	
2	
10	
6	
5	
8	
4	
6	
7	
6	
5	
7	
7	
2	
8	
6	
3	
9	
10	
5	
9	
15	
7	
8	
9	
11	
10	
9	
10	
7	
14	
9	
7	
3	
9	
5	
6	
5	
4	
4	
10	
5	
7	
5	
8	
6	
7	
10	
8	
8	
7	
8	
9	
6	
4	
7	
7	
6	
8	
6	
13	
7	
15	
9	
4	
8	
10	
4	
9	
6	
7	
4	
7	
8	
4	
7	
6	
4	
8	
6	
11	
12	
13	
7	
6	
7	
8	
7	
11	
11	
9	
5	
5	
6	
6	
7	
11	
7	
6	
6	
2	
6	
5	
8	
10	
5	
8	
8	
7	
12	
4	
4	
11	
5	
7	
8	
14	
9	
5	
5	
4	
5	
9	
9	
8	
11	
7	
10	
8	
3	
5	
12	
2	
7	
9	
9	
6	
6	
9	
8	
4	
4	
7	
3	
12	
3	
6	
7	
6	
5	
6	
5	
7	
11	
11	
7	
10	
3	
7	
9	
10	
3	
7	
5	
9	
5	
11	
11	
6	
6	
11	
7	
6	
8	
6	
8	
3	
5	
4	
8	
10	
3	
6	
6	
6	
5	
6	
9	
4	
6	
9	
6	
4	
4	
9	
4	
2	
9	
8	
7	
7	
7	
13	
10	
8	
6	
12	
9	
9	
3	
6	
7	
6	
6	
3	
6	
3	
5	
10	
5	
12	
4	
7	
7	
6	
4	
7	
5	
9	
12	
5	
9	
9	
3	
6	
7	
6	
9	
8	
5	
6	
6	
5	
9	
11	
3	
6	
10	
5	
5	
10	
5	
7	
8	
2	
7	
6	
10	
7	
3	
8	
1	
10	
5	
8	
10	
13	
9	
9	
9	
5	
5	
9	
5	
8	
5	
8	
9	
4	
6	
3	
5	
8	
9	
6	
7	
13	
10	
12	
3	
4	
9	
7	
6	
8	
11	
10	
6	
8	
13	
8	
5	
7	
5	
5	
8	
4	
10	
5	
6	
10	
8	
6	
6	
11	
5	
8	
7	
8	
6	
6	
10	
9	
14	
5	
8	
4	
7	
6	
8	
7	
10	
7	
7	
6	
9	
6	
9	
8	
12	
5	
9	
10	
11	
4	
4	
6	
8	
5	
2	
7	
3	
9	
8	
2	
4	
3	
7	
11	
9	
6	
11	
7	
4	
11	
4	
6	
5	
7	
7	
5	
8	
10	
6	
9	
1	
7	
3	
4	
2	
1	
6	
6	
11	
0	
8	
8	
13	
9	
10	
8	
6	
5	
7	
10	
8	
3	
13	
11	
2	
9	
8	
11	
8	
4	
1	
8	
7	
8	
5	
6	
3	
8	
5	
8	
12	
3	
8	
8	
4	
8	
7	
7	
9	
6	
9	
5	
5	
4	
8	
7	
7	
5	
8	
8	
6	
3	
9	
6	
6	
6	
4	
4	
7	
7	
11	
8	
10	
8	
5	
8	
6	
6	
5	
6	
4	
11	
3	
7	
6	
7	
5	
3	
9	
5	
6	
9	
7	
6	
10	
13	
5	
6	
11	
5	
7	
3	
4	
6	
12	
9	
6	
3	
14	
7	
4	
3	
2	
5	
8	
5	
7	
7	
10	
6	
6	
1	
8	
8	
4	
3	
7	
5	
6	
5	
9	
8	
6	
6	
6	
9	
6	
6	
9	
8	
9	
13	
7	
5	
6	
8	
7	
5	
4	
5	
8	
3	
4	
1	
5	
2	
7	
4	
5	
5	
4	
4	
6	
10	
6	
7	
8	
2	
6	
7	
7	
8	
9	
6	
3	
10	
6	
5	
6	
8	
6	
4	
8	
4	
9	
5	
10	
7	
8	
6	
8	
5	
6	
5	
5	
6	
3	
8	
5	
3	
2	
5	
7	
3	
2	
10	
9	
8	
4	
6	
8	
7	
4	
3	
4	
2	
7	
4	
7	
13	
3	
3	
6	
5	
5	
9	
7	
6	
9	
5	
3	
8	
3	
6	
9	
2	
6	
8	
9	
7	
3	
7	
3	
7	
4	
5	
6	
5	
7	
6	
7	
5	
7	
5	
8	
4	
9	
5	
2	
15	
6	
6	
7	
7	
2	
6	
8	
6	
8	
2	
6	
7	
6	
3	
6	
8	
10	
8	
1	
6	
4	
10	
6	
7	
6	
2	
8	
11	
7	
8	
9	
9	
4	
7	
9	
3	
2	
9	
9	
6	
7	
6	
3	
6	
7	
2	
5	
1	
4	
8	
6	
6	
9	
6	
4	
7	
5	
6	
8	
6	
3	
8	
9	
9	
8	
5	
3	
3	
3	
8	
9	
8	
4	
6	
8	
3	
7	
8	
11	
2	
2	
7	
3	
7	
3	
4	
7	
9	
4	
6	
9	
8	
6	
8	
5	
11	
4	
5	
6	
4	
5	
7	
11	
11	
6	
9	
6	
6	
7	
6	
4	
7	
2	
10	
6	
4	
5	
6	
5	
7	
4	
8	
8	
9	
6	
3	
4	
5	
7	
6	
8	
3	
4	
5	
9	
10	
6	
6	
5	
13	
8	
4	
8	
3	
5	
2	
8	
8	
7	
8	
2	
5	
5	
8	
5	
6	
4	
2	
14	
7	
5	
7	
9	
8	
6	
7	
4	
4	
4	
4	
8	
9	
7	
4	
6	
9	
4	
6	
9	
4	
10	
6	
13	
5	
3	
11	
8	
3	
9	
4	
5	
5	
6	
7	
8	
10	
7	
7	
7	
3	
7	
7	
12	
6	
6	
4	
13	
6	
3	
6	
4	
7	
7	
4	
6	
1	
6	
7	
5	
4	
7	
2	
3	
5	
4	
9	
4	
3	
2	
3	
3	
6	
5	
4	
6	
4	
6	
5	
6	
7	
6	
8	
4	
5	
5	
6	
7	
3	
5	
7	
7	
8	
6	
5	
8	
6	
8	
4	
5	
8	
3	
3	
4	
10	
8	
5	
7	
1	
4	
3	
3	
7	
9	
3	
8	
5	
6	
4	
4	
5	
6	
6	
5	
7	
3	
4	
3	
8	
13	
4	
7	
8	
5	
7	
6	
5	
4	
7	
8	
8	
7	
4	
2	
2	
6	
4	
6	
5	
6	
5	
4	
6	
4	
6	
5	
5	
5	
8	
2	
7	
6	
1	
3	
9	
6	
7	
5	
1	
5	
3	
5	
5	
4	
4	
6	
8	
6	
5	
6	
9	
7	
9	
5	
6	
5	
4	
4	
5	
3	
5	
8	
8	
9	
12	
7	
5	
4	
6	
8	
5	
4	
6	
4	
5	
8	
4	
7	
8	
5	
1	
6	
4	
4	
7	
5	
3	
7	
6	
5	
4	
6	
5	
12	
4	
3	
5	
3	
3	
4	
9	
2	
8	
4	
9	
5	
6	
6	
3	
4	
2	
8	
7	
7	
8	
7	
9	
4	
6	
7	
5	
8	
6	
7	
7	
6	
10	
10	
3	
3	
4	
6	
6	
5	
5	
4	
6	
5	
6	
4	
4	
5	
3	
4	
7	
6	
3	
5	
2	
5	
3	
6	
6	
5	
5	
3	
5	
3	
4	
7	
2	
6	
11	
4	
5	
4	
4	
4	
5	
13	
2	
4	
6	
4	
9	
10	
4	
3	
1	
4	
5	
2	
5	
2	
5	
7	
7	
11	
5	
5	
4	
3	
6	
7	
8	
2	
7	
3	
5	
7	
7	
0	
4	
6	
6	
10	
4	
4	
4	
10	
5	
5	
6	
6	
6	
7	
7	
9	
2	
4	
6	
5	
5	
9	
1	
6	
5	
9	
13	
4	
6	
7	
4	
3	
4	
8	
5	
3	
7	
0	
7	
6	
6	
7	
2	
5	
3	
8	
2	
6	
9	
4	
4	
3	
4	
7	
7	
6	
9	
1	
6	
4	
5	
7	
6	
8	
4	
5	
4	
5	
5	
3	
2	
2	
1	
3	
6	
6	
6	
5	
4	
1	
4	
6	
6	
8	
7	
6	
1	
6	
2	
3	
4	
8	
4	
2	
5	
6	
5	
5	
6	
11	
3	
4	
3	
5	
8	
8	
6	
5	
8	
7	
6	
4	
3	
2	
8	
3	
8	
4	
6	
7	
8	
8	
6	
3	
6	
7	
11	
4	
7	
3	
2	
4	
6	
7	
8	
6	
6	
7	
6	
10	
7	
7	
6	
6	
1	
2	
8	
3	
9	
8	
4	
6	
3	
3	
6	
4	
5	
9	
6	
6	
6	
6	
5	
5	
7	
7	
8	
1	
6	
6	
5	
4	
4	
9	
6	
5	
6	
6	
7	
6	
4	
2	
4	
4	
5	
5	
4	
8	
6	
7	
10	
9	
4	
6	
4	
5	
6	
7	
1	
4	
6	
2	
3	
9	
1	
5	
2	
6	
7	
2	
7	
0	
3	
9	
4	
4	
2	
4	
7	
3	
4	
7	
5	
5	
4	
8	
2	
2	
3	
13	
1	
4	
6	
5	
4	
3	
4	
6	
0	
3	
7	
1	
3	
6	
6	
5	
5	
4	
7	
6	
7	
7	
3	
7	
6	
8	
5	
4	
1	
4	
7	
9	
7	
4	
2	
4	
8	
6	
3	
10	
2	
5	
5	
7	
7	
6	
5	
5	
10	
5	
8	
4	
3	
3	
4	
7	
6	
8	
8	
5	
2	
6	
5	
7	
8	
5	
4	
5	
2	
8	
2	
2	
2	
5	
6	
6	
9	
3	
4	
3	
6	
5	
3	
4	
6	
5	
5	
10	
6	
3	
4	
2	
3	
1	
5	
3	
6	
11	
6	
4	
2	
6	
3	
7	
5	
4	
6	
3	
6	
4	
4	
4	
8	
5	
3	
4	
2	
3	
2	
4	
6	
7	
3	
8	
3	
8	
4	
6	
5	
3	
3	
5	
4	
6	
6	
4	
2	
2	
7	
5	
5	
4	
5	
3	
4	
6	
1	
4	
8	
3	
5	
6	
5	
3	
5	
2	
5	
8	
4	
3	
8	
4	
6	
7	
4	
0	
5	
6	
6	
8	
5	
6	
9	
4	
7	
7	
2	
9	
7	
5	
4	
3	
2	
4	
7	
7	
5	
5	
5	
4	
1	
9	
11	
2	
6	
5	
2	
7	
5	
6	
5	
3	
2	
6	
3	
2	
1	
6	
7	
5	
10	
5	
3	
1	
6	
7	
7	
7	
7	
0	
3	
5	
5	
12	
8	
5	
8	
5	
3	
6	
5	
7	
3	
3	
6	
2	
6	
2	
8	
4	
5	
7	
5	
4	
1	
3	
8	
5	
4	
9	
3	
10	
2	
7	
2	
2	
6	
8	
4	
6	
3	
3	
4	
12	
2	
4	
6	
4	
7	
4	
6	
4	
3	
6	
6	
4	
6	
13	
8	
4	
2	
6	
8	
5	
7	
2	
7	
4	
4	
5	
5	
5	
2	
6	
4	
3	
5	
5	
6	
5	
4	
12	
7	
3	
8	
6	
2	
4	
7	
1	
7	
4	
2	
5	
2	
4	
3	
8	
3	
0	
6	
4	
4	
6	
4	
3	
7	
2	
5	
12	
5	
2	
5	
4	
3	
2	
2	
4	
10	
2	
2	
3	
3	
2	
4	
4	
3	
8	
8	
9	
3	
6	
10	
7	
6	
3	
1	
8	
5	
7	
5	
4	
2	
8	
8	
8	
1	
6	
5	
5	
6	
3	
3	
10	
4	
2	
7	
5	
2	
6	
7	
6	
8	
5	
10	
2	
5	
4	
4	
6	
8	
3	
1	
5	
1	
5	
7	
2	
5	
6	
4	
0	
4	
3	
2	
6	
3	
5	
2	
3	
2	
5	
6	
5	
4	
1	
7	
6	
6	
5	
2	
4	
4	
3	
4	
5	
4	
4	
1	
5	
4	
3	
3	
7	
3	
3	
6	
4	
3	
2	
6	
5	
2	
5	
4	
7	
5	
8	
3	
3	
3	
3	
7	
4	
4	
1	
7	
4	
3	
5	
3	
3	
3	
7	
6	
10	
2	
4	
7	
4	
4	
1	
5	
1	
4	
2	
0	
5	
6	
7	
2	
1	
2	
7	
4	
2	
4	
4	
4	
4	
4	
1	
2	
3	
8	
4	
10	
2	
4	
7	
2	
2	
8	
3	
4	
4	
2	
3	
7	
4	
2	
7	
2	
5	
4	
6	
4	
3	
3	
4	
5	
3	
3	
6	
4	
9	
3	
6	
5	
0	
3	
3	
4	
3	
4	
5	
6	
5	
5	
4	
6	
2	
3	
5	
3	
3	
7	
9	
2	
7	
3	
5	
9	
2	
6	
2	
4	
1	
2	
7	
3	
2	
2	
1	
3	
8	
1	
6	
6	
2	
5	
7	
8	
0	
6	
2	
7	
3	
4	
2	
3	
4	
5	
0	
5	
1	
2	
2	
6	
4	
1	
6	
5	
8	
4	
5	
4	
6	
2	
3	
5	
4	
0	
3	
4	
4	
6	
4	
3	
4	
7	
2	
4	
5	
6	
6	
3	
8	
5	
4	
4	
8	
3	
3	
2	
1	
5	
8	
2	
1	
4	
3	
4	
6	
4	
8	
4	
2	
5	
8	
5	
6	
4	
2	
3	
5	
4	
3	
5	
5	
6	
7	
1	
9	
6	
3	
6	
4	
2	
6	
8	
5	
