#PicoHarp 300  Histogram Data			04/28/2022 04:22:22 PM
#channels per curve
31250
#display curve no.
0	
#memory block no.
0	
#ns/channel
0.0320	
#counts
1	
1	
1	
1	
0	
0	
0	
0	
0	
1	
3	
1	
0	
0	
1	
1	
0	
2	
0	
0	
0	
2	
0	
0	
0	
2	
2	
0	
0	
2	
0	
0	
0	
0	
1	
1	
1	
0	
0	
0	
0	
0	
0	
3	
1	
0	
0	
0	
1	
0	
0	
0	
1	
0	
0	
1	
1	
0	
0	
0	
0	
0	
0	
0	
0	
2	
1	
0	
0	
0	
2	
0	
1	
1	
1	
0	
0	
1	
0	
0	
1	
1	
0	
1	
0	
0	
1	
0	
0	
0	
0	
0	
0	
0	
2	
0	
0	
0	
0	
1	
0	
1	
0	
0	
0	
1	
0	
0	
0	
1	
0	
0	
1	
0	
0	
1	
1	
1	
1	
0	
0	
1	
0	
0	
0	
0	
0	
1	
0	
1	
0	
0	
1	
0	
0	
0	
1	
0	
0	
0	
1	
0	
0	
0	
1	
0	
1	
0	
0	
1	
0	
1	
0	
0	
1	
1	
0	
0	
0	
0	
0	
0	
1	
0	
1	
2	
0	
0	
0	
0	
0	
1	
1	
2	
0	
1	
1	
1	
0	
0	
1	
1	
0	
1	
0	
3	
0	
1	
0	
0	
0	
0	
0	
1	
1	
0	
0	
1	
1	
1	
1	
0	
1	
1	
1	
1	
1	
2	
0	
1	
0	
0	
0	
0	
2	
1	
0	
0	
1	
0	
1	
0	
2	
1	
1	
1	
0	
1	
0	
0	
0	
0	
0	
1	
1	
0	
0	
1	
0	
0	
1	
0	
1	
0	
1	
1	
1	
1	
0	
0	
0	
0	
0	
0	
2	
0	
0	
1	
0	
0	
1	
0	
1	
0	
0	
0	
1	
0	
0	
0	
1	
0	
1	
1	
0	
0	
0	
1	
0	
0	
1	
0	
0	
0	
1	
2	
0	
1	
0	
1	
0	
2	
1	
1	
0	
0	
1	
0	
1	
0	
0	
0	
1	
0	
0	
1	
1	
0	
0	
0	
1	
2	
0	
1	
0	
0	
0	
0	
0	
0	
1	
2	
0	
0	
0	
0	
1	
1	
0	
2	
0	
0	
0	
0	
0	
0	
0	
0	
1	
1	
0	
2	
1	
1	
0	
0	
0	
0	
0	
0	
0	
0	
3	
1	
0	
0	
0	
0	
0	
0	
2	
0	
0	
1	
1	
1	
2	
1	
1	
1	
1	
0	
0	
0	
0	
2	
1	
0	
1	
1	
1	
1	
1	
2	
0	
1	
0	
0	
3	
1	
0	
1	
1	
0	
0	
0	
0	
4	
0	
2	
1	
0	
0	
0	
0	
1	
2	
1	
0	
1	
0	
0	
0	
0	
1	
0	
0	
0	
0	
0	
0	
0	
0	
0	
0	
1	
1	
0	
0	
1	
1	
0	
1	
0	
1	
0	
0	
1	
0	
0	
0	
0	
1	
0	
1	
0	
3	
0	
0	
1	
1	
0	
0	
1	
0	
1	
0	
1	
1	
1	
1	
0	
1	
0	
0	
0	
0	
0	
0	
0	
1	
0	
1	
0	
0	
0	
0	
0	
0	
0	
1	
1	
1	
0	
1	
0	
0	
0	
1	
0	
1	
0	
0	
2	
1	
0	
0	
0	
1	
0	
0	
0	
3	
1	
0	
1	
0	
0	
1	
0	
3	
1	
0	
0	
0	
0	
0	
0	
0	
1	
0	
0	
0	
0	
0	
1	
1	
1	
0	
1	
1	
1	
0	
0	
2	
1	
1	
0	
0	
0	
1	
0	
0	
0	
0	
0	
0	
1	
2	
0	
0	
1	
2	
0	
0	
0	
0	
1	
0	
0	
0	
0	
0	
0	
0	
0	
0	
0	
2	
0	
0	
1	
0	
0	
0	
0	
0	
0	
2	
1	
1	
0	
1	
1	
0	
0	
1	
0	
0	
0	
0	
2	
0	
0	
0	
0	
0	
0	
1	
0	
0	
1	
0	
1	
1	
0	
0	
0	
0	
0	
0	
0	
1	
1	
0	
0	
0	
1	
1	
0	
1	
1	
0	
1	
0	
0	
1	
0	
0	
0	
0	
2	
0	
0	
0	
1	
0	
0	
0	
1	
1	
0	
2	
1	
1	
0	
0	
0	
0	
0	
0	
0	
0	
0	
0	
1	
0	
1	
0	
1	
1	
0	
0	
0	
0	
0	
0	
1	
1	
1	
0	
2	
1	
0	
1	
0	
2	
1	
0	
0	
0	
1	
1	
2	
1	
0	
0	
1	
2	
1	
0	
0	
1	
0	
0	
0	
0	
1	
0	
0	
1	
0	
0	
0	
2	
1	
1	
0	
0	
1	
1	
0	
2	
0	
0	
0	
0	
0	
0	
1	
0	
2	
0	
1	
0	
1	
0	
0	
0	
1	
1	
0	
1	
0	
0	
0	
1	
0	
0	
1	
0	
1	
1	
1	
0	
0	
0	
0	
0	
2	
2	
1	
0	
0	
0	
0	
1	
1	
1	
1	
0	
2	
1	
1	
1	
0	
2	
2	
0	
1	
1	
1	
2	
0	
0	
0	
0	
0	
1	
0	
0	
0	
0	
0	
0	
0	
0	
0	
0	
0	
0	
0	
0	
0	
1	
0	
1	
0	
2	
1	
0	
0	
0	
0	
0	
0	
0	
0	
0	
0	
0	
1	
0	
2	
0	
0	
0	
1	
0	
1	
1	
1	
0	
0	
1	
0	
0	
0	
1	
0	
0	
1	
1	
1	
1	
0	
0	
1	
1	
0	
1	
1	
2	
0	
0	
0	
0	
1	
0	
0	
0	
0	
1	
1	
0	
1	
2	
0	
0	
1	
0	
0	
0	
0	
1	
0	
1	
1	
0	
2	
0	
0	
0	
2	
1	
1	
1	
0	
0	
0	
0	
0	
0	
0	
1	
1	
0	
0	
0	
0	
0	
0	
1	
0	
0	
0	
0	
2	
1	
0	
0	
0	
0	
0	
1	
0	
2	
0	
0	
0	
2	
1	
1	
0	
0	
0	
1	
0	
0	
0	
1	
1	
2	
0	
1	
1	
1	
0	
0	
0	
2	
2	
1	
0	
0	
3	
0	
0	
2	
0	
1	
0	
0	
1	
3	
1	
1	
0	
0	
0	
1	
1	
0	
1	
1	
2	
1	
2	
2	
0	
0	
1	
1	
0	
0	
3	
2	
2	
3	
3	
0	
4	
2	
3	
3	
1	
2	
8	
8	
10	
4	
12	
13	
17	
21	
26	
22	
20	
32	
34	
33	
39	
28	
51	
50	
64	
73	
65	
57	
63	
57	
70	
71	
64	
68	
68	
60	
70	
66	
80	
76	
74	
90	
69	
100	
66	
68	
69	
65	
64	
74	
60	
68	
82	
67	
74	
73	
67	
73	
69	
66	
74	
88	
86	
72	
71	
62	
72	
72	
61	
81	
73	
57	
59	
84	
71	
72	
57	
62	
66	
59	
73	
72	
66	
65	
60	
69	
60	
61	
52	
78	
64	
72	
60	
55	
58	
67	
54	
49	
61	
68	
65	
57	
65	
57	
60	
61	
52	
55	
61	
53	
51	
63	
65	
54	
44	
61	
59	
69	
58	
64	
61	
49	
55	
57	
46	
53	
64	
51	
61	
45	
48	
49	
48	
48	
53	
59	
60	
49	
52	
53	
56	
50	
72	
54	
50	
47	
51	
47	
46	
63	
56	
47	
46	
43	
50	
47	
44	
70	
59	
53	
61	
49	
64	
49	
60	
60	
50	
54	
56	
43	
48	
55	
51	
59	
49	
58	
57	
59	
62	
60	
46	
58	
50	
43	
56	
43	
46	
41	
53	
50	
37	
46	
51	
52	
52	
46	
65	
41	
57	
45	
56	
42	
51	
46	
50	
45	
62	
57	
46	
53	
56	
49	
55	
52	
49	
58	
44	
55	
47	
59	
51	
50	
45	
44	
43	
49	
51	
57	
59	
48	
50	
44	
41	
31	
40	
34	
53	
50	
53	
36	
47	
41	
35	
45	
40	
55	
57	
43	
48	
49	
56	
45	
30	
55	
45	
46	
46	
59	
55	
41	
44	
53	
45	
44	
53	
47	
44	
46	
44	
40	
39	
39	
49	
33	
40	
49	
46	
41	
42	
38	
42	
54	
34	
50	
34	
40	
42	
52	
65	
34	
44	
55	
38	
43	
41	
50	
37	
35	
38	
39	
45	
44	
38	
49	
37	
40	
43	
43	
38	
42	
51	
45	
40	
46	
47	
39	
38	
44	
51	
37	
42	
45	
38	
46	
36	
37	
45	
36	
51	
42	
36	
43	
43	
48	
41	
38	
45	
37	
42	
44	
45	
33	
42	
32	
35	
25	
41	
45	
34	
40	
42	
34	
48	
37	
44	
41	
37	
38	
38	
40	
37	
49	
28	
30	
47	
35	
33	
43	
45	
44	
32	
45	
36	
43	
37	
40	
39	
29	
41	
40	
50	
33	
42	
35	
43	
34	
35	
47	
37	
28	
39	
34	
28	
46	
50	
37	
29	
28	
40	
41	
38	
45	
26	
35	
37	
33	
45	
35	
44	
33	
30	
30	
37	
39	
40	
41	
43	
39	
46	
35	
36	
29	
36	
29	
34	
39	
45	
39	
37	
45	
32	
31	
39	
38	
43	
39	
53	
29	
46	
28	
34	
27	
46	
29	
45	
24	
39	
40	
34	
33	
38	
37	
22	
33	
40	
31	
28	
36	
34	
31	
35	
36	
37	
40	
28	
39	
29	
32	
44	
33	
38	
24	
31	
24	
38	
43	
41	
32	
27	
37	
33	
27	
26	
36	
35	
32	
31	
39	
32	
36	
35	
27	
31	
22	
39	
40	
33	
38	
28	
34	
40	
27	
32	
30	
30	
37	
41	
37	
39	
37	
31	
32	
40	
38	
28	
32	
32	
34	
30	
33	
26	
44	
26	
36	
28	
34	
26	
35	
27	
30	
33	
38	
42	
39	
40	
33	
36	
19	
26	
36	
37	
30	
35	
25	
32	
38	
28	
27	
36	
30	
25	
34	
41	
30	
28	
31	
25	
22	
36	
39	
23	
31	
32	
23	
25	
27	
29	
24	
30	
37	
27	
23	
41	
27	
39	
34	
32	
23	
31	
30	
37	
34	
41	
32	
21	
28	
36	
27	
33	
40	
25	
31	
28	
30	
27	
28	
27	
31	
28	
33	
31	
22	
26	
32	
31	
27	
26	
23	
20	
31	
23	
26	
27	
27	
33	
28	
37	
25	
30	
22	
33	
29	
23	
32	
26	
29	
30	
37	
35	
35	
40	
29	
38	
28	
43	
25	
27	
32	
28	
23	
28	
25	
28	
26	
29	
24	
33	
40	
36	
34	
23	
20	
45	
35	
14	
28	
23	
26	
25	
20	
35	
34	
26	
18	
27	
31	
28	
26	
37	
25	
30	
33	
27	
25	
27	
27	
35	
24	
27	
28	
31	
17	
32	
29	
29	
26	
25	
29	
32	
27	
25	
30	
21	
36	
31	
27	
29	
32	
28	
23	
27	
22	
34	
25	
28	
27	
31	
29	
26	
29	
28	
29	
28	
22	
31	
19	
33	
32	
29	
29	
33	
51	
19	
27	
24	
23	
19	
38	
28	
29	
22	
16	
28	
33	
28	
26	
29	
21	
34	
28	
33	
33	
22	
26	
37	
18	
31	
10	
30	
14	
18	
29	
28	
28	
23	
23	
21	
21	
21	
28	
25	
20	
25	
22	
17	
33	
27	
25	
29	
18	
21	
25	
21	
16	
32	
20	
36	
22	
19	
24	
22	
33	
29	
19	
26	
31	
23	
27	
25	
26	
26	
25	
28	
24	
29	
27	
22	
27	
23	
27	
23	
32	
19	
28	
29	
23	
24	
23	
17	
24	
22	
30	
26	
19	
21	
24	
29	
16	
26	
24	
30	
31	
15	
20	
25	
24	
29	
20	
22	
25	
21	
23	
30	
28	
30	
24	
24	
25	
31	
25	
22	
17	
16	
23	
20	
20	
23	
17	
30	
25	
27	
26	
21	
18	
27	
24	
20	
28	
22	
18	
19	
20	
26	
23	
25	
23	
19	
24	
22	
18	
25	
30	
27	
21	
21	
17	
22	
20	
14	
17	
23	
24	
22	
21	
25	
24	
25	
27	
36	
25	
24	
25	
20	
27	
29	
23	
22	
19	
28	
30	
26	
28	
34	
24	
27	
29	
21	
23	
13	
20	
22	
25	
19	
11	
14	
16	
17	
21	
20	
12	
32	
26	
20	
24	
17	
29	
27	
21	
19	
35	
18	
19	
20	
28	
14	
29	
23	
24	
24	
16	
26	
17	
19	
24	
29	
21	
27	
20	
24	
21	
21	
21	
25	
19	
22	
31	
11	
15	
21	
25	
17	
23	
24	
19	
22	
26	
20	
21	
27	
18	
14	
10	
23	
18	
22	
22	
22	
20	
16	
21	
20	
17	
16	
25	
26	
10	
22	
22	
17	
15	
17	
16	
20	
15	
16	
20	
26	
25	
28	
21	
14	
25	
24	
17	
24	
22	
13	
24	
19	
22	
18	
20	
13	
28	
15	
32	
24	
23	
17	
18	
24	
25	
31	
20	
21	
21	
16	
18	
22	
13	
20	
18	
22	
23	
16	
9	
17	
17	
18	
26	
21	
13	
21	
22	
19	
20	
28	
17	
15	
22	
23	
21	
25	
21	
24	
23	
18	
17	
18	
21	
20	
18	
17	
24	
13	
14	
21	
21	
19	
27	
26	
15	
14	
18	
21	
24	
25	
18	
14	
11	
24	
16	
19	
21	
24	
24	
18	
21	
20	
17	
17	
22	
22	
11	
21	
9	
16	
20	
23	
16	
16	
19	
15	
19	
24	
19	
21	
15	
15	
24	
26	
17	
22	
17	
20	
23	
22	
24	
26	
15	
20	
27	
8	
17	
26	
25	
14	
13	
14	
21	
21	
22	
25	
19	
15	
11	
19	
19	
14	
24	
22	
17	
15	
16	
16	
14	
15	
16	
16	
13	
21	
20	
19	
23	
28	
17	
21	
11	
25	
16	
19	
24	
16	
15	
16	
12	
16	
12	
25	
20	
13	
18	
15	
21	
20	
17	
27	
20	
17	
19	
11	
16	
10	
17	
8	
16	
15	
16	
15	
19	
15	
13	
30	
13	
16	
22	
15	
22	
17	
16	
23	
16	
19	
19	
19	
21	
22	
14	
13	
15	
15	
16	
17	
17	
28	
14	
21	
13	
18	
8	
15	
24	
22	
18	
12	
16	
17	
13	
21	
9	
14	
20	
17	
14	
10	
13	
11	
16	
20	
16	
25	
21	
25	
15	
10	
21	
20	
16	
15	
13	
18	
18	
20	
16	
16	
14	
12	
19	
12	
13	
16	
20	
14	
12	
13	
18	
20	
13	
10	
16	
7	
18	
20	
19	
14	
18	
22	
11	
13	
15	
18	
15	
17	
14	
26	
11	
23	
8	
19	
15	
17	
19	
14	
16	
10	
15	
27	
15	
11	
17	
12	
15	
15	
10	
14	
18	
19	
13	
11	
18	
14	
18	
20	
11	
22	
6	
18	
28	
20	
11	
12	
19	
15	
11	
16	
16	
13	
12	
10	
11	
19	
20	
16	
10	
25	
12	
21	
13	
12	
16	
20	
11	
15	
10	
16	
11	
14	
9	
16	
10	
12	
18	
17	
16	
9	
6	
13	
12	
18	
19	
13	
12	
10	
21	
14	
24	
17	
16	
16	
17	
12	
17	
12	
12	
16	
11	
16	
15	
13	
12	
13	
17	
17	
17	
16	
18	
17	
17	
20	
17	
9	
7	
14	
9	
15	
16	
15	
10	
15	
13	
12	
14	
15	
14	
16	
8	
11	
26	
18	
17	
15	
11	
14	
12	
18	
10	
14	
17	
10	
11	
10	
16	
10	
14	
14	
14	
18	
16	
11	
11	
11	
14	
18	
15	
13	
12	
18	
16	
18	
16	
8	
13	
11	
17	
16	
12	
17	
12	
12	
21	
12	
10	
11	
12	
10	
17	
12	
27	
11	
13	
13	
16	
16	
12	
7	
19	
11	
12	
6	
13	
21	
14	
12	
21	
10	
14	
9	
15	
13	
17	
17	
21	
12	
9	
9	
10	
11	
10	
10	
14	
16	
16	
11	
13	
11	
10	
21	
14	
16	
11	
25	
17	
21	
10	
13	
9	
12	
15	
11	
12	
22	
23	
18	
12	
15	
9	
23	
7	
18	
17	
14	
14	
18	
11	
16	
8	
11	
14	
12	
8	
19	
13	
11	
6	
19	
18	
9	
11	
11	
11	
21	
12	
11	
12	
13	
11	
8	
21	
14	
13	
11	
9	
20	
20	
18	
11	
12	
9	
20	
8	
8	
6	
20	
14	
17	
15	
9	
11	
11	
9	
12	
14	
11	
17	
8	
11	
9	
10	
11	
14	
17	
20	
14	
17	
13	
7	
10	
6	
10	
10	
13	
15	
14	
5	
13	
8	
8	
12	
15	
11	
15	
9	
12	
14	
17	
14	
12	
12	
8	
10	
13	
13	
22	
7	
11	
16	
11	
6	
12	
9	
16	
6	
13	
19	
14	
18	
18	
9	
10	
11	
21	
7	
12	
8	
12	
13	
8	
9	
14	
20	
19	
17	
7	
13	
11	
12	
11	
11	
10	
10	
14	
10	
10	
12	
14	
9	
8	
15	
19	
13	
11	
15	
17	
12	
20	
7	
13	
17	
16	
14	
12	
10	
8	
10	
20	
10	
10	
10	
6	
13	
12	
10	
8	
12	
16	
12	
9	
11	
14	
13	
16	
14	
14	
14	
8	
8	
18	
8	
18	
11	
22	
13	
9	
17	
12	
12	
15	
10	
14	
13	
16	
9	
11	
10	
12	
3	
7	
7	
15	
12	
12	
15	
13	
12	
10	
10	
18	
13	
9	
7	
7	
5	
7	
14	
11	
14	
15	
9	
12	
13	
11	
10	
17	
13	
12	
11	
13	
12	
16	
11	
11	
5	
6	
4	
16	
15	
16	
6	
9	
15	
7	
6	
11	
11	
6	
12	
13	
15	
11	
8	
19	
12	
11	
5	
7	
13	
7	
16	
10	
11	
10	
15	
12	
12	
10	
12	
13	
14	
10	
6	
15	
12	
8	
10	
16	
14	
12	
10	
15	
11	
16	
9	
7	
11	
11	
8	
8	
9	
11	
10	
6	
10	
16	
8	
11	
8	
10	
13	
19	
11	
12	
13	
12	
7	
5	
10	
12	
13	
15	
11	
8	
18	
12	
8	
9	
11	
14	
14	
13	
16	
5	
9	
13	
9	
11	
7	
11	
10	
14	
12	
8	
12	
10	
9	
7	
9	
10	
6	
12	
9	
10	
18	
12	
10	
12	
13	
9	
7	
12	
11	
12	
12	
10	
8	
8	
13	
10	
12	
6	
10	
8	
15	
8	
11	
7	
13	
16	
9	
14	
7	
6	
12	
7	
9	
8	
11	
11	
9	
9	
8	
7	
11	
8	
8	
6	
13	
9	
13	
21	
4	
10	
11	
8	
8	
9	
10	
3	
6	
7	
9	
11	
7	
8	
15	
12	
8	
10	
12	
8	
9	
13	
11	
10	
10	
10	
6	
6	
2	
9	
9	
13	
8	
8	
7	
10	
10	
15	
6	
10	
15	
5	
5	
11	
5	
7	
9	
8	
8	
8	
9	
11	
9	
9	
9	
13	
9	
9	
5	
10	
12	
14	
6	
8	
4	
7	
4	
7	
13	
6	
11	
17	
9	
9	
13	
14	
6	
10	
7	
5	
4	
10	
14	
13	
10	
6	
14	
9	
11	
16	
8	
7	
8	
9	
8	
7	
11	
7	
6	
13	
8	
11	
6	
12	
10	
8	
12	
13	
10	
8	
11	
4	
12	
8	
12	
8	
9	
10	
9	
7	
12	
10	
7	
17	
9	
6	
9	
8	
13	
9	
7	
10	
11	
7	
4	
10	
9	
9	
6	
9	
9	
6	
7	
9	
9	
9	
3	
10	
5	
7	
7	
7	
7	
6	
10	
2	
5	
10	
7	
8	
9	
8	
10	
5	
6	
19	
8	
6	
4	
6	
9	
12	
11	
5	
9	
7	
8	
10	
13	
3	
8	
7	
9	
8	
18	
2	
6	
8	
6	
7	
7	
7	
7	
7	
7	
11	
10	
12	
11	
6	
7	
13	
9	
4	
5	
10	
11	
9	
10	
7	
7	
10	
9	
5	
11	
3	
9	
11	
7	
5	
6	
8	
13	
9	
5	
11	
12	
10	
6	
8	
12	
8	
6	
7	
5	
14	
10	
11	
8	
8	
7	
7	
4	
9	
2	
14	
8	
8	
8	
5	
8	
9	
11	
9	
9	
9	
8	
4	
6	
11	
9	
7	
4	
8	
4	
9	
7	
9	
6	
7	
9	
9	
7	
13	
9	
10	
5	
2	
6	
8	
10	
5	
7	
6	
9	
13	
8	
9	
2	
10	
13	
10	
4	
7	
8	
10	
8	
11	
10	
8	
10	
12	
6	
4	
9	
8	
6	
8	
6	
13	
5	
3	
4	
10	
10	
7	
6	
10	
0	
11	
6	
5	
7	
8	
3	
4	
5	
8	
12	
7	
12	
5	
9	
3	
4	
15	
6	
10	
12	
7	
2	
8	
5	
10	
6	
7	
7	
10	
8	
14	
7	
11	
4	
9	
6	
4	
7	
10	
10	
7	
7	
8	
5	
8	
7	
6	
10	
10	
4	
8	
7	
7	
4	
6	
4	
9	
9	
7	
7	
9	
6	
11	
8	
9	
5	
4	
6	
7	
3	
11	
10	
8	
5	
9	
5	
10	
6	
5	
7	
11	
4	
10	
8	
13	
8	
5	
13	
10	
8	
4	
8	
7	
11	
11	
7	
8	
4	
12	
7	
5	
5	
7	
8	
7	
6	
4	
8	
10	
11	
5	
2	
7	
7	
4	
5	
11	
11	
8	
7	
9	
7	
4	
6	
1	
4	
3	
8	
3	
8	
11	
8	
7	
4	
7	
3	
8	
5	
8	
4	
10	
11	
5	
9	
7	
10	
6	
7	
5	
2	
5	
8	
7	
3	
7	
3	
6	
4	
4	
6	
6	
5	
9	
6	
4	
7	
5	
11	
7	
3	
7	
7	
6	
11	
4	
7	
4	
9	
5	
4	
8	
2	
9	
5	
4	
6	
3	
7	
6	
5	
7	
6	
5	
6	
3	
10	
4	
8	
7	
6	
5	
7	
5	
2	
6	
3	
3	
10	
8	
8	
8	
10	
5	
5	
2	
6	
10	
7	
14	
10	
7	
4	
7	
10	
5	
5	
8	
7	
4	
5	
6	
9	
9	
5	
8	
7	
4	
6	
10	
7	
7	
7	
6	
9	
1	
6	
6	
2	
5	
6	
6	
10	
6	
3	
8	
8	
7	
3	
5	
2	
6	
7	
7	
8	
2	
6	
7	
2	
3	
6	
5	
12	
5	
6	
9	
5	
5	
8	
7	
7	
6	
3	
4	
11	
4	
9	
9	
5	
4	
5	
6	
7	
6	
5	
4	
5	
11	
5	
9	
6	
7	
4	
5	
10	
7	
3	
5	
2	
4	
8	
6	
8	
4	
3	
6	
8	
10	
5	
4	
5	
7	
5	
6	
3	
10	
14	
9	
13	
2	
6	
7	
3	
12	
5	
10	
7	
8	
8	
4	
6	
7	
7	
9	
10	
4	
8	
8	
7	
4	
4	
3	
4	
5	
5	
3	
7	
2	
9	
13	
7	
5	
5	
6	
3	
7	
7	
5	
9	
4	
5	
1	
10	
9	
3	
8	
4	
3	
6	
4	
13	
6	
5	
3	
2	
7	
7	
3	
8	
6	
6	
6	
2	
6	
3	
9	
8	
8	
3	
4	
9	
10	
6	
5	
6	
6	
1	
2	
6	
4	
6	
6	
6	
4	
7	
9	
6	
5	
6	
7	
8	
5	
7	
7	
8	
7	
6	
3	
4	
5	
3	
3	
4	
5	
4	
6	
7	
5	
8	
5	
5	
4	
5	
3	
6	
3	
11	
4	
7	
5	
5	
8	
9	
2	
9	
7	
5	
2	
5	
5	
5	
6	
4	
6	
9	
5	
5	
5	
3	
6	
8	
2	
9	
5	
4	
5	
7	
2	
4	
6	
3	
5	
6	
3	
4	
7	
8	
4	
5	
6	
4	
1	
3	
7	
4	
6	
5	
7	
6	
10	
9	
5	
6	
5	
2	
8	
2	
5	
6	
7	
5	
6	
5	
3	
10	
3	
1	
5	
6	
11	
4	
2	
2	
5	
7	
4	
6	
4	
5	
8	
7	
3	
5	
7	
8	
3	
4	
3	
5	
5	
3	
3	
4	
4	
4	
6	
3	
6	
5	
7	
5	
7	
6	
5	
6	
2	
5	
5	
3	
6	
3	
3	
7	
5	
6	
8	
2	
4	
5	
3	
5	
7	
5	
6	
6	
2	
6	
5	
6	
5	
7	
9	
2	
4	
4	
4	
2	
3	
2	
4	
8	
3	
8	
2	
4	
3	
2	
10	
7	
6	
6	
5	
6	
2	
7	
4	
4	
2	
3	
4	
7	
3	
4	
2	
5	
5	
6	
5	
3	
8	
4	
2	
3	
7	
4	
7	
5	
6	
4	
4	
5	
2	
9	
2	
6	
4	
4	
6	
6	
8	
9	
2	
5	
7	
4	
5	
3	
4	
6	
8	
6	
5	
3	
5	
3	
4	
5	
4	
4	
3	
2	
4	
5	
3	
5	
4	
4	
4	
3	
4	
4	
6	
7	
4	
2	
6	
2	
3	
3	
6	
1	
10	
5	
8	
8	
6	
1	
5	
10	
6	
0	
7	
6	
6	
5	
2	
3	
6	
2	
5	
1	
4	
5	
6	
6	
4	
0	
5	
4	
4	
4	
1	
6	
3	
4	
5	
2	
3	
1	
6	
7	
10	
4	
5	
6	
2	
6	
3	
4	
8	
5	
3	
1	
5	
5	
7	
5	
2	
5	
3	
3	
4	
8	
9	
6	
5	
4	
7	
6	
3	
7	
4	
4	
6	
5	
4	
4	
1	
7	
5	
0	
3	
3	
3	
4	
4	
8	
2	
4	
8	
5	
7	
4	
6	
4	
12	
9	
2	
2	
7	
1	
0	
4	
6	
6	
5	
4	
4	
5	
5	
5	
5	
9	
5	
8	
4	
4	
3	
10	
4	
4	
6	
6	
3	
1	
5	
2	
2	
8	
4	
2	
1	
4	
1	
4	
5	
2	
5	
3	
0	
1	
3	
5	
7	
4	
2	
3	
7	
5	
4	
8	
3	
5	
5	
6	
2	
7	
4	
3	
1	
4	
5	
4	
6	
6	
1	
2	
3	
4	
2	
3	
8	
7	
9	
6	
2	
7	
5	
7	
6	
6	
7	
6	
7	
4	
6	
3	
9	
4	
4	
6	
4	
2	
4	
2	
7	
5	
5	
7	
5	
4	
2	
8	
4	
2	
4	
2	
4	
3	
5	
6	
3	
5	
2	
5	
4	
4	
3	
6	
3	
3	
7	
3	
6	
1	
3	
4	
5	
1	
1	
6	
3	
7	
2	
3	
6	
3	
5	
6	
6	
2	
3	
8	
5	
2	
2	
6	
5	
5	
6	
3	
3	
4	
2	
4	
5	
2	
3	
3	
8	
8	
3	
4	
4	
4	
3	
8	
3	
4	
2	
1	
6	
4	
3	
4	
5	
0	
5	
2	
4	
2	
2	
6	
4	
1	
0	
3	
3	
4	
3	
2	
3	
6	
2	
4	
6	
3	
1	
3	
3	
2	
3	
5	
2	
4	
5	
3	
1	
2	
6	
4	
4	
2	
2	
3	
4	
4	
4	
7	
3	
4	
6	
1	
4	
1	
5	
4	
5	
4	
3	
3	
4	
4	
7	
4	
4	
6	
3	
2	
6	
1	
5	
1	
4	
4	
1	
3	
4	
3	
5	
3	
5	
3	
5	
3	
6	
4	
4	
2	
2	
4	
7	
4	
8	
4	
3	
3	
5	
2	
3	
1	
5	
5	
3	
4	
6	
6	
2	
3	
2	
2	
4	
6	
6	
3	
2	
2	
5	
1	
2	
7	
4	
5	
8	
3	
2	
6	
3	
0	
4	
1	
5	
5	
5	
4	
2	
1	
2	
1	
3	
6	
2	
1	
3	
3	
4	
6	
4	
3	
6	
4	
5	
2	
5	
1	
3	
3	
1	
4	
3	
3	
3	
6	
2	
5	
4	
3	
4	
3	
1	
1	
0	
5	
3	
4	
5	
0	
3	
6	
2	
3	
5	
5	
7	
2	
3	
5	
0	
8	
4	
4	
3	
4	
1	
3	
5	
7	
6	
1	
6	
2	
2	
2	
3	
4	
3	
2	
3	
3	
6	
6	
1	
3	
2	
3	
4	
3	
4	
1	
5	
4	
1	
3	
1	
5	
4	
2	
5	
1	
2	
2	
3	
4	
3	
2	
4	
2	
2	
4	
8	
3	
5	
3	
3	
1	
1	
2	
3	
5	
0	
5	
3	
4	
3	
2	
5	
5	
5	
4	
3	
3	
1	
3	
3	
4	
1	
5	
3	
5	
3	
5	
4	
5	
3	
5	
4	
5	
2	
2	
3	
5	
6	
5	
4	
1	
6	
2	
3	
4	
1	
1	
3	
3	
4	
5	
2	
4	
1	
3	
3	
2	
4	
2	
5	
3	
1	
3	
4	
3	
2	
1	
4	
8	
0	
3	
5	
3	
4	
2	
3	
5	
4	
2	
5	
4	
6	
1	
6	
2	
5	
3	
3	
2	
1	
6	
0	
3	
4	
2	
7	
4	
1	
5	
2	
4	
5	
3	
5	
4	
2	
2	
4	
4	
3	
2	
6	
4	
0	
3	
5	
4	
1	
1	
4	
3	
2	
2	
2	
3	
2	
5	
0	
2	
4	
4	
3	
5	
4	
2	
1	
3	
1	
3	
2	
3	
4	
3	
4	
3	
1	
4	
0	
3	
1	
4	
4	
3	
2	
0	
5	
6	
2	
2	
3	
1	
1	
5	
4	
5	
3	
4	
3	
2	
4	
6	
6	
4	
3	
1	
1	
3	
3	
3	
5	
1	
5	
4	
4	
5	
6	
2	
4	
4	
2	
2	
1	
2	
2	
1	
0	
2	
4	
2	
3	
2	
2	
5	
3	
2	
3	
1	
2	
6	
3	
3	
7	
4	
4	
4	
5	
3	
1	
6	
6	
3	
5	
3	
1	
0	
2	
4	
2	
3	
0	
7	
6	
4	
3	
1	
6	
1	
4	
2	
5	
3	
2	
7	
5	
2	
5	
4	
4	
4	
1	
0	
2	
2	
2	
3	
2	
2	
1	
3	
3	
5	
1	
2	
6	
1	
4	
1	
2	
5	
2	
6	
3	
2	
6	
2	
3	
2	
2	
2	
3	
1	
3	
3	
0	
2	
2	
4	
5	
0	
5	
1	
3	
4	
2	
1	
5	
3	
3	
2	
2	
7	
3	
2	
1	
4	
1	
1	
4	
2	
3	
2	
3	
0	
2	
2	
1	
4	
2	
3	
2	
3	
5	
1	
1	
2	
5	
3	
5	
4	
4	
4	
2	
1	
2	
2	
1	
2	
2	
2	
2	
4	
1	
1	
2	
3	
4	
3	
0	
3	
1	
2	
4	
3	
8	
2	
6	
4	
2	
3	
3	
4	
4	
3	
3	
2	
4	
0	
5	
2	
0	
4	
2	
2	
5	
4	
4	
4	
1	
3	
2	
1	
3	
1	
4	
2	
2	
4	
3	
1	
2	
3	
3	
3	
0	
3	
7	
6	
4	
3	
0	
1	
3	
3	
3	
4	
2	
6	
3	
3	
1	
4	
1	
4	
3	
3	
1	
2	
2	
3	
1	
4	
4	
4	
3	
0	
0	
1	
3	
1	
3	
1	
2	
2	
4	
3	
3	
1	
1	
6	
4	
1	
1	
8	
1	
4	
1	
1	
1	
7	
0	
2	
5	
2	
2	
2	
2	
2	
2	
1	
2	
0	
5	
1	
6	
0	
2	
2	
2	
0	
5	
1	
5	
3	
1	
5	
3	
1	
3	
5	
1	
4	
2	
3	
4	
3	
0	
2	
0	
1	
4	
3	
1	
2	
3	
1	
3	
1	
3	
4	
5	
3	
3	
3	
1	
2	
4	
4	
5	
3	
3	
8	
1	
2	
3	
2	
3	
8	
2	
3	
2	
1	
2	
4	
0	
0	
1	
2	
1	
3	
2	
5	
1	
6	
2	
3	
4	
3	
1	
4	
0	
2	
2	
1	
1	
2	
2	
3	
4	
4	
2	
4	
3	
2	
1	
1	
3	
1	
4	
2	
3	
1	
3	
6	
1	
5	
2	
2	
6	
3	
0	
8	
2	
2	
4	
3	
6	
1	
2	
3	
1	
3	
2	
3	
1	
1	
2	
0	
2	
2	
5	
3	
4	
2	
3	
1	
4	
3	
3	
2	
3	
4	
1	
5	
2	
1	
3	
3	
2	
4	
3	
5	
1	
2	
1	
3	
0	
3	
0	
5	
2	
2	
2	
4	
2	
3	
3	
1	
0	
1	
2	
2	
1	
2	
3	
3	
6	
6	
2	
3	
2	
1	
1	
2	
6	
5	
1	
5	
4	
1	
2	
1	
2	
1	
5	
2	
1	
2	
2	
7	
6	
3	
0	
4	
2	
4	
2	
5	
4	
3	
4	
2	
4	
1	
3	
1	
2	
1	
2	
1	
1	
1	
2	
1	
2	
4	
2	
3	
1	
1	
1	
4	
7	
0	
3	
1	
3	
3	
1	
1	
5	
3	
0	
0	
0	
2	
1	
3	
2	
2	
2	
2	
2	
2	
1	
1	
2	
4	
0	
2	
2	
1	
0	
5	
0	
2	
3	
1	
2	
6	
2	
2	
2	
5	
2	
2	
3	
2	
3	
1	
3	
0	
2	
2	
2	
1	
0	
4	
1	
6	
2	
0	
1	
2	
3	
5	
3	
2	
2	
2	
4	
3	
2	
1	
3	
1	
2	
5	
0	
1	
1	
1	
2	
1	
2	
0	
1	
3	
2	
2	
1	
1	
1	
3	
1	
1	
0	
1	
1	
1	
2	
0	
2	
4	
1	
2	
4	
2	
2	
2	
1	
1	
2	
2	
5	
2	
1	
0	
4	
1	
2	
1	
2	
2	
2	
1	
4	
0	
0	
1	
3	
3	
0	
2	
1	
3	
2	
2	
3	
2	
2	
4	
3	
1	
4	
1	
2	
1	
3	
2	
3	
2	
1	
4	
2	
1	
2	
2	
0	
4	
2	
1	
1	
0	
2	
3	
1	
4	
0	
2	
5	
4	
3	
2	
0	
2	
4	
4	
2	
3	
1	
1	
4	
2	
1	
3	
1	
1	
0	
2	
1	
2	
3	
3	
1	
2	
2	
2	
1	
2	
2	
1	
4	
3	
1	
1	
3	
5	
2	
4	
3	
1	
2	
0	
3	
4	
0	
2	
6	
0	
1	
3	
4	
0	
1	
4	
2	
3	
2	
1	
1	
0	
5	
0	
3	
2	
4	
2	
1	
1	
2	
1	
1	
3	
1	
3	
4	
3	
2	
0	
0	
2	
0	
2	
3	
0	
2	
2	
3	
3	
2	
2	
2	
4	
2	
2	
2	
3	
0	
1	
1	
2	
1	
4	
3	
2	
2	
2	
1	
0	
0	
1	
3	
3	
2	
1	
3	
0	
2	
0	
2	
2	
3	
5	
1	
1	
2	
4	
2	
3	
1	
2	
3	
6	
1	
0	
3	
2	
4	
2	
3	
4	
2	
1	
1	
1	
4	
4	
1	
3	
2	
3	
0	
3	
2	
1	
2	
1	
3	
0	
1	
5	
1	
1	
1	
4	
3	
3	
2	
2	
1	
0	
2	
2	
2	
3	
2	
0	
1	
1	
2	
1	
5	
4	
1	
3	
0	
5	
1	
1	
1	
0	
0	
2	
1	
0	
2	
3	
3	
2	
3	
2	
1	
0	
0	
3	
1	
1	
1	
2	
0	
1	
2	
1	
1	
3	
1	
2	
1	
0	
3	
4	
3	
3	
0	
1	
3	
1	
0	
4	
0	
4	
1	
3	
2	
1	
3	
0	
2	
3	
3	
2	
0	
3	
3	
1	
0	
1	
0	
0	
1	
1	
1	
3	
4	
1	
1	
2	
1	
1	
0	
3	
1	
0	
1	
1	
0	
0	
4	
2	
1	
1	
2	
2	
1	
1	
1	
1	
0	
0	
2	
2	
0	
2	
1	
2	
4	
0	
2	
1	
4	
0	
1	
2	
2	
2	
2	
3	
1	
3	
2	
2	
2	
1	
2	
1	
5	
3	
3	
0	
2	
3	
1	
0	
2	
2	
1	
2	
2	
4	
2	
3	
2	
2	
2	
3	
3	
2	
0	
2	
3	
0	
2	
2	
1	
1	
0	
1	
2	
5	
2	
2	
1	
0	
0	
5	
3	
2	
4	
2	
3	
4	
0	
1	
1	
1	
2	
1	
1	
1	
5	
0	
2	
4	
1	
1	
1	
1	
1	
0	
2	
3	
0	
4	
1	
0	
1	
1	
4	
0	
3	
2	
2	
0	
1	
1	
0	
4	
0	
1	
0	
0	
2	
2	
1	
2	
2	
1	
0	
0	
1	
3	
0	
0	
2	
1	
4	
0	
0	
1	
0	
2	
3	
3	
1	
3	
4	
4	
2	
1	
4	
2	
3	
3	
2	
2	
3	
1	
3	
0	
2	
1	
4	
2	
2	
2	
0	
1	
2	
1	
2	
3	
2	
3	
5	
3	
1	
0	
3	
1	
2	
1	
5	
4	
0	
3	
5	
2	
2	
3	
0	
1	
1	
0	
2	
2	
0	
2	
2	
2	
0	
0	
3	
1	
0	
1	
2	
2	
0	
1	
3	
3	
0	
2	
3	
0	
2	
1	
4	
0	
4	
1	
0	
2	
2	
2	
3	
2	
0	
2	
1	
2	
1	
2	
2	
1	
0	
2	
2	
1	
4	
0	
2	
2	
1	
4	
1	
2	
2	
4	
4	
3	
1	
1	
2	
2	
3	
2	
0	
1	
0	
0	
3	
1	
0	
1	
0	
2	
1	
1	
3	
1	
1	
3	
0	
2	
1	
3	
2	
3	
2	
3	
2	
1	
2	
1	
0	
1	
0	
2	
1	
3	
0	
3	
2	
7	
3	
3	
1	
0	
2	
0	
2	
1	
1	
1	
1	
2	
2	
1	
1	
4	
1	
1	
0	
2	
1	
2	
1	
0	
0	
3	
1	
2	
3	
0	
2	
3	
3	
2	
0	
1	
1	
3	
2	
1	
2	
1	
1	
3	
4	
2	
2	
2	
1	
0	
1	
2	
3	
0	
2	
2	
1	
2	
5	
3	
0	
0	
2	
1	
1	
2	
1	
0	
1	
0	
1	
0	
1	
1	
0	
4	
3	
5	
1	
1	
1	
0	
1	
2	
1	
1	
1	
2	
2	
0	
0	
1	
2	
4	
1	
2	
1	
0	
1	
3	
3	
1	
1	
1	
2	
1	
1	
2	
5	
3	
1	
0	
3	
1	
1	
1	
1	
0	
2	
2	
2	
1	
2	
1	
3	
1	
2	
0	
1	
3	
0	
3	
2	
0	
2	
1	
1	
3	
1	
2	
3	
0	
1	
2	
0	
3	
1	
0	
1	
2	
1	
0	
1	
1	
3	
1	
2	
3	
0	
3	
1	
0	
0	
2	
1	
2	
0	
3	
0	
1	
0	
1	
1	
0	
0	
1	
0	
1	
1	
2	
2	
3	
2	
0	
0	
2	
2	
2	
2	
4	
1	
2	
1	
4	
1	
0	
1	
1	
1	
0	
0	
3	
3	
1	
2	
2	
0	
0	
2	
2	
1	
2	
1	
0	
1	
2	
1	
1	
3	
1	
0	
2	
2	
2	
1	
0	
2	
2	
2	
1	
2	
2	
2	
0	
0	
1	
0	
5	
2	
2	
1	
4	
0	
1	
3	
3	
1	
1	
1	
1	
0	
0	
0	
0	
2	
0	
1	
2	
3	
1	
1	
2	
1	
2	
1	
0	
3	
0	
0	
1	
1	
2	
3	
0	
1	
2	
1	
3	
2	
1	
3	
5	
0	
1	
3	
0	
1	
4	
3	
3	
0	
1	
3	
2	
2	
0	
1	
0	
4	
1	
0	
1	
3	
1	
0	
4	
2	
1	
3	
3	
1	
1	
1	
1	
1	
0	
1	
0	
1	
1	
1	
0	
1	
3	
0	
2	
2	
1	
3	
2	
2	
0	
0	
2	
0	
2	
0	
0	
5	
1	
2	
0	
3	
4	
1	
3	
2	
3	
1	
3	
1	
0	
0	
0	
0	
2	
1	
0	
2	
0	
0	
0	
1	
1	
0	
0	
1	
0	
4	
1	
2	
0	
2	
4	
2	
5	
0	
3	
2	
1	
1	
2	
0	
1	
2	
3	
3	
1	
0	
0	
1	
1	
1	
2	
2	
2	
2	
0	
1	
2	
2	
0	
0	
1	
3	
0	
0	
1	
1	
1	
3	
1	
2	
1	
2	
1	
1	
0	
1	
2	
2	
1	
1	
1	
3	
1	
1	
0	
2	
0	
2	
2	
4	
0	
0	
0	
3	
0	
3	
2	
1	
1	
0	
2	
0	
2	
1	
2	
0	
2	
0	
4	
2	
3	
0	
1	
2	
1	
4	
0	
1	
2	
2	
0	
2	
2	
1	
1	
2	
2	
2	
2	
3	
0	
0	
0	
2	
1	
2	
3	
0	
1	
0	
0	
1	
2	
1	
2	
3	
2	
1	
2	
0	
2	
1	
0	
1	
1	
1	
3	
1	
1	
2	
1	
2	
3	
0	
1	
0	
2	
1	
2	
0	
4	
0	
1	
1	
1	
2	
2	
3	
2	
1	
1	
2	
1	
2	
1	
1	
3	
1	
1	
0	
2	
5	
1	
2	
1	
2	
0	
1	
2	
0	
0	
4	
1	
1	
1	
0	
0	
3	
1	
0	
0	
2	
0	
3	
2	
2	
2	
2	
1	
0	
1	
1	
1	
0	
4	
3	
2	
2	
1	
1	
2	
2	
0	
1	
2	
1	
1	
1	
1	
1	
1	
2	
1	
3	
0	
0	
1	
1	
2	
1	
1	
1	
1	
3	
0	
2	
1	
1	
1	
2	
1	
0	
0	
2	
1	
2	
1	
0	
0	
1	
1	
2	
1	
1	
0	
0	
1	
0	
1	
3	
0	
1	
1	
2	
1	
2	
0	
1	
2	
1	
1	
1	
3	
0	
3	
0	
0	
1	
1	
0	
2	
1	
5	
3	
2	
1	
1	
4	
2	
0	
1	
1	
1	
2	
2	
2	
2	
3	
2	
3	
4	
0	
3	
1	
0	
0	
1	
1	
1	
1	
0	
3	
0	
1	
2	
1	
2	
2	
0	
0	
1	
1	
1	
3	
4	
0	
0	
0	
1	
0	
2	
1	
0	
2	
2	
1	
1	
2	
2	
0	
0	
0	
1	
1	
1	
0	
1	
3	
1	
3	
3	
2	
1	
2	
2	
3	
1	
1	
2	
0	
2	
0	
2	
0	
2	
2	
1	
0	
2	
4	
2	
1	
0	
0	
3	
0	
0	
1	
2	
0	
1	
1	
0	
3	
4	
0	
0	
0	
2	
0	
3	
2	
2	
2	
1	
4	
2	
0	
1	
4	
0	
1	
2	
1	
3	
2	
1	
0	
1	
4	
0	
5	
3	
2	
1	
1	
1	
4	
1	
2	
0	
1	
2	
3	
1	
0	
2	
1	
0	
5	
0	
2	
1	
0	
1	
0	
1	
1	
2	
0	
1	
1	
3	
0	
1	
2	
3	
2	
2	
0	
0	
1	
1	
1	
1	
0	
3	
1	
1	
3	
2	
1	
0	
3	
1	
2	
0	
0	
2	
0	
0	
0	
0	
1	
3	
0	
1	
2	
0	
0	
1	
3	
3	
1	
1	
2	
1	
2	
0	
1	
0	
0	
3	
0	
3	
2	
2	
1	
1	
0	
1	
1	
3	
3	
1	
1	
3	
1	
1	
3	
3	
0	
0	
1	
2	
2	
1	
2	
0	
1	
3	
1	
2	
1	
1	
3	
0	
2	
2	
2	
2	
3	
0	
1	
2	
3	
0	
2	
0	
3	
2	
1	
1	
2	
2	
1	
0	
3	
0	
1	
2	
3	
1	
0	
0	
2	
2	
0	
2	
1	
0	
3	
0	
1	
0	
1	
0	
1	
2	
1	
1	
0	
2	
1	
0	
0	
0	
1	
1	
1	
1	
2	
0	
0	
3	
0	
0	
1	
4	
0	
0	
1	
1	
1	
1	
1	
1	
0	
0	
1	
2	
1	
2	
2	
2	
4	
0	
1	
2	
0	
2	
0	
1	
2	
0	
0	
0	
0	
2	
0	
1	
1	
0	
4	
1	
0	
2	
0	
0	
4	
1	
0	
0	
0	
4	
0	
0	
1	
2	
0	
0	
2	
0	
2	
2	
1	
1	
0	
1	
3	
0	
0	
0	
2	
0	
1	
3	
0	
1	
0	
2	
4	
1	
4	
1	
0	
4	
2	
2	
0	
0	
1	
0	
2	
0	
1	
2	
0	
2	
2	
0	
0	
5	
2	
0	
1	
0	
0	
1	
0	
0	
2	
3	
1	
2	
2	
1	
1	
0	
1	
0	
1	
3	
0	
1	
0	
1	
1	
2	
3	
2	
0	
3	
0	
2	
1	
1	
1	
1	
2	
2	
2	
0	
3	
0	
2	
2	
0	
1	
0	
2	
0	
3	
2	
3	
0	
2	
0	
0	
1	
0	
0	
1	
1	
0	
1	
0	
0	
1	
0	
0	
1	
2	
3	
2	
3	
0	
2	
1	
1	
0	
1	
1	
0	
0	
1	
1	
0	
3	
0	
1	
0	
0	
0	
0	
0	
0	
2	
1	
1	
1	
3	
0	
1	
1	
0	
0	
0	
3	
2	
1	
1	
1	
1	
1	
0	
0	
2	
2	
1	
1	
2	
1	
1	
0	
4	
2	
0	
1	
2	
0	
1	
0	
0	
0	
0	
0	
0	
1	
0	
0	
1	
0	
0	
0	
2	
1	
1	
2	
0	
2	
1	
1	
0	
1	
0	
2	
2	
1	
2	
0	
1	
2	
2	
1	
0	
0	
0	
2	
0	
0	
1	
0	
1	
1	
1	
1	
1	
1	
1	
0	
1	
1	
1	
1	
0	
0	
2	
0	
0	
0	
1	
3	
1	
0	
3	
2	
0	
0	
0	
0	
0	
0	
1	
1	
0	
1	
1	
2	
1	
2	
2	
0	
0	
2	
4	
1	
1	
1	
2	
0	
1	
0	
2	
0	
1	
0	
2	
2	
4	
1	
1	
1	
1	
2	
0	
0	
2	
1	
2	
2	
2	
1	
3	
2	
0	
2	
3	
1	
1	
1	
0	
0	
0	
0	
1	
0	
1	
1	
1	
1	
2	
0	
1	
0	
1	
1	
1	
2	
0	
5	
1	
0	
0	
2	
0	
0	
1	
1	
2	
0	
1	
1	
1	
0	
3	
0	
1	
0	
1	
3	
1	
1	
0	
1	
1	
0	
1	
2	
2	
1	
2	
0	
0	
1	
0	
1	
1	
3	
1	
1	
2	
0	
1	
0	
1	
0	
1	
2	
0	
0	
0	
0	
0	
1	
1	
2	
2	
2	
0	
3	
2	
1	
1	
1	
0	
0	
0	
2	
0	
1	
2	
1	
1	
3	
2	
2	
4	
1	
1	
1	
1	
1	
3	
3	
3	
0	
0	
1	
3	
2	
1	
1	
3	
0	
1	
1	
1	
1	
0	
1	
0	
1	
1	
1	
0	
3	
1	
0	
1	
1	
2	
3	
1	
5	
1	
1	
2	
1	
2	
0	
1	
1	
3	
3	
0	
0	
0	
3	
2	
0	
1	
0	
2	
0	
1	
0	
0	
3	
0	
1	
1	
0	
1	
0	
0	
0	
2	
1	
2	
2	
1	
1	
2	
2	
4	
0	
1	
3	
2	
0	
0	
1	
2	
0	
2	
1	
0	
1	
0	
1	
1	
2	
0	
1	
0	
2	
0	
0	
5	
0	
1	
0	
1	
2	
0	
0	
1	
0	
1	
1	
1	
0	
0	
2	
2	
1	
2	
0	
2	
1	
0	
1	
0	
1	
1	
1	
0	
0	
4	
0	
1	
1	
1	
0	
0	
1	
1	
1	
0	
0	
1	
1	
2	
1	
1	
0	
1	
1	
3	
1	
2	
1	
0	
0	
1	
3	
1	
1	
0	
0	
2	
2	
1	
2	
0	
2	
1	
1	
0	
2	
0	
0	
1	
0	
2	
0	
0	
1	
1	
1	
1	
2	
1	
0	
2	
0	
0	
3	
0	
0	
3	
3	
2	
0	
1	
1	
3	
0	
0	
1	
2	
0	
0	
0	
1	
0	
1	
2	
1	
1	
3	
0	
0	
0	
1	
0	
1	
3	
2	
1	
2	
0	
2	
1	
1	
2	
1	
0	
1	
0	
0	
1	
0	
0	
0	
2	
1	
1	
0	
1	
1	
1	
1	
4	
1	
1	
1	
2	
0	
3	
1	
1	
1	
1	
2	
2	
0	
0	
1	
0	
1	
1	
2	
3	
0	
1	
2	
0	
2	
0	
2	
1	
1	
3	
1	
0	
0	
0	
0	
1	
0	
1	
1	
0	
0	
3	
2	
1	
1	
0	
0	
2	
2	
0	
0	
0	
2	
0	
1	
0	
1	
1	
1	
1	
2	
2	
1	
1	
0	
0	
2	
0	
1	
0	
0	
1	
3	
2	
2	
0	
1	
0	
0	
0	
0	
0	
0	
1	
0	
2	
2	
1	
0	
0	
2	
1	
1	
0	
2	
1	
2	
0	
2	
2	
2	
0	
1	
1	
1	
0	
2	
3	
0	
1	
1	
0	
1	
1	
1	
0	
0	
0	
1	
1	
1	
0	
0	
1	
0	
0	
0	
0	
3	
0	
0	
0	
0	
1	
0	
0	
1	
3	
2	
0	
2	
1	
3	
2	
0	
1	
1	
1	
1	
1	
0	
1	
0	
0	
0	
1	
0	
0	
0	
0	
1	
2	
1	
0	
0	
2	
0	
0	
0	
0	
2	
2	
0	
0	
1	
0	
0	
0	
0	
1	
2	
0	
1	
1	
1	
0	
1	
0	
0	
1	
1	
1	
2	
2	
3	
1	
0	
1	
1	
2	
1	
0	
1	
0	
1	
1	
1	
1	
1	
1	
2	
0	
2	
0	
0	
1	
1	
1	
1	
0	
0	
1	
1	
1	
1	
4	
0	
2	
0	
0	
3	
0	
1	
2	
0	
4	
2	
0	
1	
0	
0	
0	
2	
1	
3	
0	
0	
0	
1	
1	
1	
1	
1	
1	
2	
0	
0	
0	
2	
0	
1	
0	
1	
2	
1	
0	
1	
1	
2	
1	
1	
1	
1	
3	
2	
0	
2	
0	
1	
0	
2	
0	
1	
1	
1	
0	
0	
2	
1	
1	
2	
0	
4	
0	
1	
2	
2	
1	
2	
1	
0	
0	
0	
1	
4	
0	
2	
3	
5	
0	
1	
0	
1	
1	
0	
0	
2	
2	
0	
0	
1	
2	
3	
3	
0	
0	
0	
1	
3	
0	
1	
0	
0	
1	
1	
3	
3	
0	
2	
1	
0	
0	
1	
1	
1	
0	
0	
1	
0	
1	
1	
1	
0	
0	
0	
1	
1	
0	
0	
0	
1	
2	
0	
1	
2	
1	
0	
0	
2	
1	
6	
0	
1	
1	
0	
2	
2	
0	
0	
1	
0	
0	
0	
1	
1	
1	
0	
1	
1	
2	
1	
1	
0	
0	
3	
0	
0	
0	
3	
0	
2	
2	
3	
1	
1	
0	
1	
1	
0	
1	
3	
2	
0	
0	
1	
1	
2	
1	
1	
2	
1	
0	
0	
0	
2	
0	
0	
0	
0	
1	
2	
0	
1	
2	
2	
0	
1	
2	
1	
0	
0	
1	
1	
3	
0	
1	
2	
1	
2	
3	
0	
1	
2	
0	
1	
2	
0	
1	
1	
1	
0	
1	
3	
1	
0	
1	
1	
0	
2	
0	
0	
1	
0	
1	
1	
0	
2	
1	
3	
0	
0	
0	
0	
2	
0	
1	
0	
3	
1	
4	
0	
0	
0	
1	
0	
0	
0	
1	
0	
3	
0	
2	
0	
2	
0	
1	
1	
1	
0	
2	
5	
0	
0	
0	
0	
0	
0	
1	
1	
2	
1	
1	
1	
1	
0	
1	
0	
1	
2	
1	
3	
2	
1	
0	
2	
0	
1	
2	
1	
1	
2	
0	
4	
0	
0	
2	
0	
2	
2	
1	
1	
1	
1	
1	
0	
0	
0	
0	
1	
0	
1	
0	
0	
0	
2	
0	
2	
3	
1	
1	
1	
2	
2	
0	
0	
0	
0	
0	
1	
0	
0	
0	
0	
0	
1	
1	
2	
1	
1	
1	
0	
1	
0	
0	
1	
0	
2	
2	
0	
0	
0	
0	
1	
1	
0	
1	
1	
1	
1	
0	
1	
0	
0	
1	
1	
2	
2	
0	
1	
1	
1	
0	
1	
0	
2	
0	
1	
2	
1	
4	
0	
1	
3	
1	
0	
1	
1	
1	
1	
2	
1	
0	
1	
0	
0	
1	
2	
0	
0	
0	
0	
0	
2	
1	
0	
0	
1	
0	
1	
1	
1	
1	
0	
1	
2	
0	
1	
1	
2	
0	
0	
3	
2	
0	
0	
0	
0	
2	
2	
1	
1	
1	
1	
1	
0	
0	
4	
0	
1	
3	
2	
2	
1	
1	
1	
0	
1	
2	
2	
0	
1	
0	
0	
0	
1	
3	
0	
0	
0	
2	
2	
0	
0	
2	
1	
1	
1	
1	
0	
1	
0	
0	
0	
2	
1	
1	
1	
2	
0	
1	
2	
2	
1	
1	
1	
0	
0	
2	
1	
0	
0	
0	
1	
2	
0	
0	
1	
1	
0	
1	
1	
0	
1	
0	
0	
0	
1	
2	
1	
1	
1	
0	
0	
0	
2	
3	
0	
0	
1	
0	
1	
0	
0	
1	
1	
1	
0	
1	
0	
2	
2	
0	
0	
0	
3	
2	
0	
0	
0	
0	
0	
0	
0	
2	
1	
0	
0	
0	
1	
1	
0	
1	
0	
0	
0	
1	
1	
1	
0	
0	
1	
0	
1	
0	
0	
1	
1	
0	
0	
0	
3	
1	
1	
0	
1	
0	
0	
0	
0	
1	
0	
2	
3	
0	
1	
1	
0	
1	
4	
0	
0	
0	
1	
2	
0	
2	
1	
0	
0	
3	
0	
1	
1	
1	
2	
2	
2	
1	
1	
0	
2	
0	
1	
1	
0	
0	
0	
2	
1	
1	
3	
1	
0	
0	
0	
2	
0	
0	
0	
1	
2	
0	
0	
0	
1	
0	
0	
1	
0	
0	
2	
0	
0	
2	
0	
1	
0	
0	
1	
0	
0	
2	
0	
3	
2	
0	
0	
0	
1	
1	
0	
0	
0	
1	
0	
0	
1	
0	
3	
0	
0	
1	
0	
1	
0	
1	
0	
0	
0	
1	
3	
0	
1	
2	
0	
0	
1	
3	
0	
3	
1	
1	
0	
0	
2	
0	
1	
0	
0	
0	
0	
3	
2	
0	
2	
0	
1	
0	
0	
0	
2	
0	
0	
0	
0	
1	
0	
1	
0	
1	
0	
2	
2	
0	
1	
1	
0	
0	
1	
0	
3	
1	
0	
1	
0	
0	
1	
0	
1	
2	
0	
0	
0	
1	
1	
0	
0	
0	
1	
0	
0	
0	
1	
1	
2	
0	
0	
1	
2	
0	
0	
1	
0	
0	
1	
0	
1	
1	
1	
2	
0	
0	
0	
3	
1	
0	
0	
0	
1	
0	
1	
1	
1	
0	
0	
3	
0	
1	
3	
1	
1	
1	
0	
1	
2	
0	
0	
1	
1	
1	
2	
0	
0	
0	
0	
0	
2	
0	
0	
0	
1	
0	
2	
0	
1	
2	
1	
0	
1	
0	
1	
2	
0	
1	
1	
1	
0	
1	
2	
1	
0	
1	
0	
0	
0	
0	
0	
0	
0	
0	
1	
1	
0	
0	
0	
1	
2	
2	
2	
0	
1	
0	
1	
0	
0	
2	
0	
2	
1	
0	
2	
0	
1	
1	
0	
0	
0	
0	
0	
1	
1	
0	
1	
0	
0	
0	
2	
0	
1	
0	
1	
0	
0	
1	
0	
0	
1	
0	
1	
0	
1	
0	
1	
1	
0	
0	
0	
0	
1	
0	
1	
0	
1	
0	
1	
0	
1	
0	
1	
0	
0	
1	
0	
0	
0	
1	
0	
1	
0	
0	
0	
0	
0	
0	
1	
0	
0	
2	
0	
1	
0	
0	
1	
0	
0	
0	
2	
1	
0	
0	
0	
0	
1	
0	
0	
1	
0	
0	
0	
1	
2	
1	
0	
0	
0	
2	
2	
0	
1	
0	
0	
0	
1	
0	
0	
0	
1	
0	
0	
0	
2	
0	
0	
0	
0	
2	
2	
0	
2	
1	
0	
0	
0	
0	
1	
1	
0	
1	
1	
0	
1	
3	
0	
1	
2	
0	
2	
0	
1	
1	
1	
3	
1	
0	
2	
0	
0	
0	
0	
0	
2	
0	
0	
0	
2	
1	
3	
2	
0	
0	
1	
2	
0	
0	
0	
2	
1	
0	
1	
0	
1	
0	
1	
0	
2	
0	
0	
1	
1	
0	
0	
0	
2	
1	
2	
0	
1	
1	
0	
0	
0	
0	
1	
2	
2	
0	
1	
0	
0	
2	
1	
0	
1	
0	
0	
2	
0	
0	
0	
0	
1	
0	
2	
1	
0	
1	
0	
2	
1	
1	
0	
0	
0	
2	
0	
0	
0	
0	
1	
1	
1	
0	
0	
0	
1	
0	
0	
0	
1	
0	
1	
0	
0	
0	
1	
0	
2	
2	
0	
0	
2	
0	
0	
2	
0	
0	
1	
4	
1	
1	
2	
0	
5	
0	
0	
0	
0	
0	
2	
1	
1	
0	
3	
0	
1	
1	
3	
1	
1	
1	
1	
0	
0	
0	
1	
2	
1	
2	
0	
1	
1	
0	
0	
0	
0	
1	
1	
1	
1	
1	
2	
1	
1	
2	
1	
1	
0	
2	
1	
2	
0	
0	
1	
1	
0	
0	
0	
2	
0	
0	
0	
1	
0	
2	
1	
3	
0	
1	
2	
0	
0	
3	
2	
2	
0	
0	
0	
1	
1	
0	
0	
2	
1	
0	
0	
2	
0	
0	
0	
0	
1	
0	
0	
3	
1	
1	
0	
1	
1	
1	
2	
0	
1	
2	
1	
0	
0	
1	
0	
0	
1	
1	
1	
1	
1	
1	
1	
0	
0	
1	
2	
0	
2	
0	
0	
0	
1	
0	
1	
0	
1	
0	
1	
0	
0	
2	
0	
0	
1	
1	
2	
2	
1	
0	
1	
1	
0	
0	
1	
0	
1	
1	
1	
0	
0	
0	
0	
0	
2	
1	
0	
2	
0	
1	
0	
0	
0	
0	
1	
2	
1	
1	
0	
0	
1	
0	
0	
1	
0	
1	
3	
0	
0	
1	
2	
2	
1	
0	
1	
0	
1	
0	
1	
0	
2	
4	
1	
0	
1	
0	
0	
2	
0	
1	
0	
1	
2	
0	
2	
0	
1	
0	
2	
2	
1	
4	
2	
1	
1	
1	
0	
0	
2	
2	
0	
1	
0	
3	
1	
0	
2	
0	
0	
0	
1	
0	
1	
1	
1	
1	
0	
0	
0	
1	
1	
1	
0	
1	
2	
1	
3	
1	
1	
0	
0	
0	
0	
1	
0	
1	
0	
0	
1	
0	
1	
0	
1	
0	
0	
0	
0	
0	
0	
0	
2	
1	
1	
0	
0	
2	
0	
0	
0	
0	
1	
0	
0	
0	
0	
0	
4	
0	
0	
0	
0	
0	
2	
2	
0	
0	
0	
0	
1	
0	
1	
1	
0	
0	
0	
2	
1	
0	
1	
0	
0	
0	
0	
0	
0	
0	
2	
1	
0	
0	
1	
0	
1	
0	
0	
2	
0	
0	
0	
1	
3	
2	
3	
0	
1	
0	
1	
0	
1	
0	
0	
0	
1	
0	
1	
1	
1	
0	
0	
0	
1	
0	
0	
3	
0	
1	
1	
1	
0	
0	
0	
0	
1	
1	
1	
0	
2	
1	
1	
0	
0	
0	
1	
1	
0	
2	
1	
2	
0	
0	
0	
0	
0	
0	
1	
0	
1	
1	
1	
2	
0	
0	
1	
1	
0	
0	
0	
0	
2	
2	
0	
0	
0	
0	
0	
0	
2	
2	
2	
1	
0	
1	
2	
0	
0	
0	
2	
0	
1	
0	
0	
0	
1	
1	
1	
0	
1	
0	
0	
0	
1	
0	
1	
3	
1	
0	
1	
1	
0	
1	
0	
1	
1	
0	
2	
0	
0	
0	
1	
1	
0	
0	
2	
1	
2	
0	
1	
1	
1	
0	
1	
0	
0	
1	
0	
2	
0	
1	
0	
0	
0	
1	
0	
