#PicoHarp 300  Histogram Data			04/20/2022 04:34:22 PM
#channels per curve
31250
#display curve no.
0	
#memory block no.
0	
#ns/channel
0.0320	
#counts
0	
4	
5	
1	
0	
0	
0	
1	
1	
0	
1	
0	
1	
1	
0	
1	
2	
0	
2	
2	
4	
2	
2	
1	
1	
1	
1	
1	
2	
0	
2	
2	
2	
1	
0	
1	
1	
2	
0	
1	
0	
1	
2	
1	
1	
1	
4	
2	
1	
2	
0	
2	
2	
2	
2	
2	
0	
2	
0	
0	
0	
1	
0	
0	
0	
1	
1	
1	
1	
0	
0	
0	
1	
1	
1	
4	
1	
1	
1	
2	
0	
0	
1	
0	
0	
2	
0	
1	
0	
0	
0	
1	
1	
0	
0	
0	
2	
1	
3	
0	
0	
2	
0	
2	
1	
2	
1	
0	
2	
0	
0	
0	
0	
3	
0	
0	
3	
1	
2	
1	
0	
1	
0	
1	
1	
2	
0	
1	
1	
2	
1	
0	
0	
0	
1	
1	
2	
0	
3	
0	
0	
2	
0	
1	
0	
0	
1	
0	
0	
1	
0	
1	
3	
1	
2	
2	
2	
0	
0	
1	
1	
1	
0	
1	
1	
0	
1	
1	
2	
0	
1	
1	
0	
0	
3	
1	
1	
0	
0	
1	
3	
0	
0	
1	
0	
2	
1	
0	
2	
1	
0	
3	
0	
2	
1	
1	
0	
3	
0	
0	
1	
2	
0	
1	
0	
0	
0	
2	
2	
4	
0	
1	
0	
3	
1	
1	
2	
1	
1	
1	
6	
0	
0	
1	
0	
2	
3	
1	
0	
0	
0	
3	
1	
1	
2	
1	
1	
1	
1	
1	
1	
0	
2	
0	
0	
0	
0	
2	
1	
1	
1	
0	
2	
1	
2	
1	
1	
4	
1	
1	
0	
0	
0	
0	
0	
1	
2	
2	
2	
0	
0	
1	
0	
1	
1	
0	
0	
1	
2	
0	
0	
1	
2	
0	
2	
1	
1	
1	
1	
1	
1	
0	
0	
1	
0	
1	
1	
1	
0	
0	
1	
0	
1	
0	
1	
1	
2	
3	
0	
0	
0	
1	
3	
0	
1	
0	
1	
0	
1	
1	
2	
2	
0	
1	
0	
0	
0	
1	
0	
3	
1	
2	
2	
0	
1	
1	
0	
2	
1	
2	
0	
1	
1	
1	
5	
1	
1	
1	
1	
1	
4	
2	
1	
0	
0	
1	
0	
1	
1	
1	
1	
0	
0	
0	
1	
1	
2	
1	
0	
0	
2	
0	
0	
3	
1	
1	
0	
0	
2	
2	
1	
0	
2	
0	
0	
0	
1	
2	
0	
1	
1	
1	
0	
1	
0	
1	
0	
1	
1	
1	
2	
2	
3	
3	
2	
1	
3	
5	
0	
0	
0	
0	
0	
4	
0	
3	
0	
0	
1	
0	
1	
2	
2	
0	
0	
1	
1	
1	
0	
1	
0	
2	
1	
1	
0	
1	
2	
1	
1	
0	
0	
3	
0	
2	
3	
1	
1	
0	
3	
1	
2	
0	
0	
0	
0	
0	
0	
1	
3	
1	
1	
0	
1	
1	
1	
2	
0	
1	
0	
1	
1	
0	
1	
0	
1	
1	
2	
1	
0	
0	
1	
0	
2	
2	
1	
0	
0	
1	
1	
0	
1	
0	
1	
3	
1	
1	
0	
0	
3	
2	
1	
2	
2	
1	
2	
1	
2	
0	
1	
1	
0	
1	
0	
0	
2	
0	
1	
2	
2	
1	
0	
1	
1	
0	
0	
4	
1	
4	
2	
0	
1	
3	
0	
1	
3	
1	
0	
1	
0	
1	
2	
2	
0	
0	
0	
0	
3	
0	
0	
0	
2	
1	
1	
1	
0	
1	
0	
1	
0	
2	
1	
2	
0	
1	
0	
1	
1	
0	
0	
1	
2	
0	
3	
0	
0	
4	
1	
0	
2	
0	
4	
1	
2	
0	
0	
1	
0	
5	
3	
0	
0	
1	
0	
1	
2	
0	
1	
1	
2	
2	
3	
1	
2	
1	
1	
0	
0	
0	
2	
3	
1	
3	
0	
2	
0	
2	
0	
0	
2	
1	
0	
1	
1	
0	
0	
2	
1	
3	
2	
1	
0	
2	
2	
0	
2	
3	
4	
0	
1	
1	
5	
2	
1	
2	
1	
0	
0	
0	
3	
0	
0	
1	
1	
2	
0	
1	
0	
1	
1	
4	
0	
1	
0	
0	
0	
3	
2	
2	
2	
1	
2	
0	
1	
2	
1	
2	
3	
1	
0	
2	
2	
0	
0	
0	
1	
0	
1	
2	
0	
0	
1	
0	
0	
2	
1	
0	
0	
1	
0	
1	
0	
2	
1	
0	
2	
1	
1	
0	
0	
1	
2	
2	
0	
0	
0	
0	
1	
0	
1	
2	
1	
0	
1	
0	
1	
1	
3	
1	
0	
1	
2	
3	
1	
2	
0	
0	
0	
1	
1	
0	
1	
4	
1	
1	
0	
1	
0	
2	
0	
0	
2	
1	
0	
0	
1	
0	
2	
2	
3	
2	
2	
1	
0	
1	
0	
0	
1	
0	
1	
0	
0	
0	
1	
0	
1	
2	
0	
0	
0	
0	
0	
1	
2	
1	
1	
0	
1	
3	
1	
2	
0	
1	
2	
2	
0	
2	
0	
1	
0	
1	
1	
0	
1	
2	
4	
1	
1	
4	
0	
3	
1	
2	
0	
1	
1	
1	
1	
2	
2	
1	
0	
2	
0	
0	
1	
1	
2	
0	
0	
2	
2	
3	
0	
0	
1	
1	
1	
0	
0	
2	
1	
2	
1	
1	
1	
2	
2	
1	
2	
1	
1	
0	
1	
0	
1	
0	
1	
1	
0	
0	
2	
0	
2	
0	
0	
1	
2	
0	
2	
2	
1	
4	
1	
2	
1	
0	
0	
2	
1	
0	
0	
1	
0	
0	
2	
1	
3	
3	
1	
2	
1	
2	
3	
0	
0	
3	
1	
1	
4	
1	
1	
2	
3	
1	
0	
0	
0	
0	
1	
2	
1	
1	
1	
3	
0	
0	
0	
0	
2	
0	
0	
1	
1	
0	
1	
1	
2	
0	
1	
1	
1	
1	
1	
0	
0	
0	
0	
1	
0	
2	
0	
1	
1	
0	
3	
1	
1	
0	
1	
1	
0	
0	
0	
2	
1	
0	
0	
0	
1	
1	
1	
2	
5	
1	
2	
6	
1	
5	
4	
1	
4	
2	
4	
7	
8	
9	
4	
8	
13	
20	
15	
9	
18	
25	
40	
28	
50	
31	
52	
60	
70	
78	
102	
80	
92	
111	
115	
125	
131	
156	
159	
158	
185	
176	
194	
188	
175	
185	
185	
209	
214	
213	
234	
215	
235	
215	
240	
224	
228	
272	
222	
240	
248	
252	
257	
225	
245	
258	
263	
250	
209	
266	
223	
271	
263	
232	
236	
240	
256	
268	
241	
235	
233	
240	
244	
258	
229	
264	
228	
255	
217	
271	
254	
244	
249	
252	
244	
273	
243	
251	
236	
238	
244	
222	
249	
202	
250	
260	
245	
242	
244	
233	
218	
233	
220	
248	
232	
230	
254	
224	
263	
220	
231	
204	
231	
242	
230	
234	
245	
238	
235	
234	
220	
233	
217	
230	
203	
227	
222	
251	
239	
249	
206	
248	
234	
228	
242	
249	
205	
234	
238	
249	
263	
233	
222	
219	
225	
249	
269	
236	
230	
210	
191	
206	
260	
247	
229	
217	
211	
229	
214	
199	
229	
219	
238	
227	
194	
234	
245	
246	
245	
228	
229	
214	
242	
245	
222	
226	
235	
230	
219	
266	
221	
224	
224	
199	
224	
238	
221	
235	
222	
223	
199	
210	
197	
219	
217	
228	
193	
206	
187	
205	
213	
208	
205	
217	
215	
227	
216	
222	
209	
248	
217	
239	
205	
228	
211	
230	
202	
194	
203	
196	
212	
219	
207	
226	
203	
207	
213	
229	
203	
205	
200	
219	
215	
215	
231	
210	
202	
236	
227	
190	
206	
203	
205	
196	
194	
200	
215	
177	
200	
203	
206	
217	
195	
210	
186	
191	
195	
195	
217	
185	
203	
216	
241	
211	
198	
217	
186	
194	
209	
206	
207	
195	
192	
206	
184	
194	
211	
203	
194	
199	
197	
210	
212	
195	
197	
216	
198	
212	
195	
215	
199	
189	
183	
184	
189	
199	
210	
182	
190	
189	
197	
208	
187	
184	
196	
199	
200	
189	
176	
185	
212	
205	
199	
166	
182	
195	
192	
202	
188	
195	
198	
215	
171	
193	
184	
177	
185	
197	
175	
178	
177	
195	
176	
205	
175	
179	
171	
197	
198	
166	
190	
182	
184	
162	
172	
178	
186	
186	
177	
172	
212	
150	
169	
162	
171	
190	
205	
175	
172	
187	
174	
181	
174	
179	
176	
190	
179	
185	
171	
188	
191	
194	
187	
171	
185	
179	
191	
185	
178	
187	
173	
196	
179	
190	
189	
167	
190	
185	
174	
181	
172	
186	
196	
178	
208	
187	
206	
200	
200	
138	
169	
182	
186	
187	
156	
193	
165	
179	
154	
166	
176	
161	
150	
171	
188	
178	
184	
185	
155	
169	
172	
176	
175	
171	
170	
170	
168	
165	
180	
176	
170	
185	
191	
174	
168	
160	
159	
162	
188	
170	
177	
153	
151	
185	
176	
175	
172	
160	
153	
191	
176	
163	
160	
171	
185	
173	
145	
192	
181	
186	
174	
155	
171	
157	
167	
168	
146	
127	
163	
166	
166	
168	
190	
165	
171	
165	
163	
162	
177	
147	
155	
164	
151	
164	
156	
139	
165	
169	
167	
151	
190	
159	
170	
158	
188	
167	
152	
153	
173	
175	
162	
159	
149	
178	
166	
157	
165	
135	
157	
143	
142	
156	
166	
163	
152	
149	
181	
171	
160	
171	
152	
186	
155	
168	
155	
171	
137	
168	
174	
169	
163	
158	
135	
155	
139	
163	
160	
140	
158	
171	
160	
147	
161	
155	
140	
155	
160	
169	
161	
147	
140	
168	
155	
145	
160	
151	
151	
147	
161	
180	
146	
166	
134	
155	
152	
161	
138	
162	
144	
168	
172	
141	
145	
156	
130	
147	
158	
160	
151	
146	
158	
163	
148	
146	
154	
145	
136	
155	
179	
156	
178	
168	
169	
156	
169	
140	
158	
165	
153	
151	
156	
152	
160	
157	
140	
156	
137	
153	
130	
151	
168	
134	
161	
154	
142	
127	
147	
148	
153	
155	
177	
132	
145	
137	
130	
151	
143	
153	
170	
134	
146	
155	
138	
143	
130	
127	
150	
133	
133	
122	
157	
150	
163	
117	
131	
125	
158	
152	
142	
146	
141	
144	
131	
137	
132	
139	
138	
135	
127	
166	
129	
144	
145	
125	
146	
138	
136	
140	
132	
131	
153	
149	
158	
153	
132	
147	
135	
155	
151	
163	
151	
157	
142	
127	
135	
136	
154	
145	
134	
141	
144	
125	
133	
129	
142	
172	
133	
135	
162	
136	
141	
167	
137	
136	
117	
145	
133	
143	
141	
158	
129	
137	
143	
134	
130	
134	
113	
152	
120	
129	
118	
146	
147	
163	
123	
124	
129	
148	
127	
123	
152	
145	
143	
136	
153	
148	
133	
143	
125	
136	
158	
133	
143	
135	
137	
149	
149	
151	
139	
134	
133	
143	
136	
125	
129	
134	
125	
123	
106	
134	
141	
122	
145	
122	
124	
164	
125	
132	
147	
124	
139	
129	
134	
121	
146	
126	
129	
123	
112	
133	
144	
125	
125	
130	
123	
132	
131	
141	
126	
134	
118	
116	
144	
122	
143	
127	
151	
116	
136	
138	
133	
141	
124	
126	
136	
141	
141	
126	
132	
139	
103	
128	
110	
138	
129	
129	
115	
133	
125	
124	
122	
130	
121	
119	
129	
114	
133	
124	
128	
124	
131	
141	
144	
127	
111	
122	
143	
138	
115	
125	
123	
129	
123	
130	
127	
133	
133	
98	
108	
123	
133	
108	
133	
138	
135	
121	
128	
134	
119	
129	
123	
131	
109	
144	
130	
115	
105	
123	
124	
133	
153	
99	
104	
116	
142	
120	
129	
119	
129	
133	
125	
127	
120	
128	
134	
110	
123	
116	
141	
117	
129	
112	
132	
115	
129	
132	
109	
117	
126	
121	
121	
100	
122	
136	
137	
114	
112	
97	
120	
115	
124	
116	
123	
112	
111	
104	
122	
144	
129	
141	
120	
119	
119	
108	
123	
120	
121	
126	
112	
100	
133	
109	
125	
129	
124	
116	
110	
84	
123	
109	
132	
119	
118	
125	
120	
120	
134	
109	
128	
112	
124	
122	
98	
107	
114	
123	
94	
109	
118	
108	
121	
122	
110	
126	
121	
117	
115	
100	
111	
118	
122	
103	
100	
110	
121	
116	
97	
107	
124	
123	
115	
124	
109	
130	
107	
101	
108	
104	
107	
130	
125	
129	
105	
126	
117	
102	
107	
120	
133	
132	
125	
104	
111	
96	
111	
106	
125	
99	
93	
113	
124	
109	
113	
108	
96	
108	
109	
111	
109	
91	
106	
113	
96	
112	
106	
116	
110	
112	
111	
107	
113	
101	
119	
123	
100	
111	
110	
108	
128	
120	
112	
125	
109	
110	
102	
120	
100	
110	
87	
110	
114	
114	
108	
106	
94	
110	
113	
110	
117	
86	
104	
121	
89	
126	
115	
97	
110	
96	
95	
96	
99	
99	
115	
108	
95	
110	
99	
99	
125	
117	
101	
107	
98	
86	
113	
111	
106	
121	
105	
114	
92	
116	
103	
124	
105	
96	
132	
105	
124	
123	
117	
96	
97	
117	
121	
108	
111	
95	
115	
111	
112	
102	
107	
104	
104	
104	
105	
106	
101	
87	
92	
99	
117	
118	
111	
99	
94	
107	
102	
101	
91	
117	
123	
105	
118	
97	
118	
100	
100	
112	
116	
104	
91	
97	
95	
90	
110	
104	
90	
85	
95	
137	
107	
97	
93	
98	
89	
98	
99	
77	
98	
86	
112	
107	
99	
104	
109	
103	
83	
116	
101	
108	
119	
104	
92	
93	
110	
97	
120	
81	
95	
89	
99	
90	
104	
107	
97	
106	
101	
95	
111	
96	
105	
87	
86	
106	
110	
86	
112	
118	
109	
99	
86	
99	
94	
108	
107	
96	
78	
106	
95	
88	
87	
113	
97	
100	
87	
91	
91	
109	
120	
69	
89	
97	
106	
106	
102	
98	
92	
94	
83	
96	
89	
103	
103	
98	
93	
88	
96	
105	
85	
102	
82	
100	
92	
90	
85	
85	
105	
108	
93	
91	
98	
78	
108	
101	
92	
96	
96	
73	
106	
99	
81	
98	
82	
84	
99	
97	
116	
89	
94	
89	
92	
100	
85	
88	
92	
90	
96	
81	
103	
101	
91	
85	
92	
89	
90	
96	
80	
92	
79	
101	
93	
103	
89	
84	
91	
79	
88	
99	
94	
81	
99	
94	
92	
88	
97	
86	
82	
70	
91	
107	
89	
83	
121	
84	
101	
83	
90	
110	
105	
82	
100	
86	
82	
106	
84	
103	
98	
102	
92	
78	
90	
93	
89	
102	
89	
68	
83	
75	
92	
105	
96	
88	
92	
70	
89	
89	
109	
83	
84	
98	
89	
87	
108	
77	
81	
111	
93	
94	
79	
88	
87	
78	
107	
84	
76	
86	
80	
84	
100	
83	
103	
97	
87	
78	
97	
76	
99	
83	
99	
81	
89	
77	
85	
83	
74	
89	
84	
76	
95	
93	
95	
109	
93	
80	
81	
82	
84	
101	
96	
85	
88	
96	
91	
73	
93	
101	
93	
92	
84	
100	
82	
91	
97	
81	
87	
72	
91	
89	
87	
86	
88	
77	
81	
85	
96	
82	
83	
81	
83	
89	
73	
72	
65	
92	
78	
85	
81	
82	
80	
87	
85	
80	
78	
81	
78	
85	
87	
75	
94	
95	
86	
83	
89	
70	
73	
75	
84	
71	
87	
74	
68	
85	
86	
72	
73	
88	
65	
97	
87	
103	
80	
77	
97	
83	
82	
75	
78	
82	
77	
86	
80	
66	
83	
85	
86	
90	
88	
77	
81	
93	
85	
88	
85	
86	
78	
74	
90	
74	
78	
88	
64	
86	
87	
80	
78	
83	
91	
75	
78	
86	
75	
73	
76	
73	
87	
66	
77	
60	
82	
73	
84	
80	
93	
86	
74	
78	
68	
85	
86	
84	
88	
83	
88	
83	
78	
71	
80	
68	
80	
85	
76	
86	
84	
75	
87	
82	
87	
104	
68	
69	
65	
61	
76	
69	
92	
87	
78	
90	
69	
79	
81	
66	
84	
87	
79	
81	
85	
85	
87	
81	
80	
73	
61	
86	
85	
78	
69	
73	
100	
68	
83	
91	
73	
77	
96	
88	
78	
65	
70	
64	
79	
67	
69	
82	
76	
68	
80	
85	
84	
63	
66	
79	
85	
82	
71	
85	
63	
78	
75	
84	
71	
76	
93	
88	
70	
73	
67	
75	
71	
78	
61	
80	
74	
73	
72	
75	
77	
73	
71	
66	
80	
69	
66	
68	
76	
82	
73	
69	
78	
86	
56	
83	
78	
65	
78	
81	
72	
75	
77	
81	
85	
71	
79	
79	
80	
72	
59	
78	
73	
81	
69	
65	
69	
63	
81	
68	
88	
70	
73	
77	
74	
76	
66	
83	
77	
76	
60	
68	
72	
76	
72	
78	
74	
88	
71	
85	
80	
63	
64	
80	
74	
85	
65	
70	
71	
64	
73	
79	
70	
68	
87	
75	
69	
72	
80	
83	
69	
67	
75	
63	
87	
78	
70	
76	
73	
62	
51	
59	
58	
70	
77	
66	
85	
88	
78	
77	
68	
83	
68	
77	
75	
71	
64	
56	
89	
66	
79	
64	
73	
66	
65	
77	
74	
82	
89	
71	
67	
54	
70	
62	
91	
63	
77	
76	
70	
74	
67	
70	
77	
71	
58	
80	
68	
85	
90	
75	
64	
73	
78	
62	
67	
60	
78	
63	
90	
67	
76	
75	
53	
72	
87	
67	
74	
55	
63	
61	
58	
67	
87	
70	
71	
78	
86	
57	
69	
73	
58	
62	
74	
68	
70	
61	
86	
59	
83	
64	
56	
91	
69	
62	
70	
68	
75	
68	
59	
73	
59	
59	
51	
71	
77	
64	
59	
75	
70	
64	
64	
63	
64	
64	
65	
59	
73	
72	
68	
62	
74	
59	
66	
61	
68	
63	
63	
70	
62	
77	
76	
64	
65	
84	
63	
59	
63	
66	
71	
72	
60	
58	
67	
67	
80	
60	
76	
69	
61	
61	
60	
61	
74	
83	
61	
63	
73	
69	
81	
62	
75	
63	
59	
52	
73	
77	
64	
57	
69	
64	
48	
81	
64	
73	
60	
71	
67	
58	
73	
71	
73	
60	
52	
63	
76	
64	
65	
68	
56	
78	
70	
68	
80	
73	
83	
62	
65	
70	
70	
77	
83	
68	
66	
57	
64	
64	
67	
71	
60	
59	
67	
80	
65	
51	
75	
76	
65	
66	
65	
61	
68	
73	
67	
68	
57	
65	
67	
77	
71	
61	
72	
55	
71	
65	
74	
56	
69	
67	
60	
69	
58	
62	
52	
62	
66	
66	
71	
70	
63	
58	
60	
67	
62	
47	
68	
66	
74	
58	
64	
63	
69	
47	
82	
62	
78	
55	
62	
86	
51	
69	
64	
70	
63	
55	
53	
58	
68	
60	
63	
55	
61	
57	
46	
75	
65	
62	
65	
70	
56	
64	
67	
79	
54	
75	
54	
72	
61	
69	
66	
52	
60	
47	
74	
60	
55	
56	
47	
56	
70	
56	
54	
62	
50	
61	
65	
64	
76	
58	
73	
45	
62	
59	
58	
87	
40	
77	
58	
57	
54	
63	
65	
61	
59	
45	
65	
46	
47	
62	
62	
70	
60	
56	
54	
65	
54	
57	
56	
62	
80	
66	
61	
77	
37	
68	
56	
57	
55	
67	
68	
63	
58	
64	
42	
66	
64	
57	
55	
59	
57	
64	
53	
67	
67	
66	
51	
60	
53	
52	
58	
57	
57	
60	
63	
67	
66	
73	
76	
59	
67	
46	
58	
63	
63	
74	
56	
48	
50	
65	
51	
55	
56	
50	
53	
55	
57	
54	
41	
48	
62	
45	
49	
66	
57	
62	
51	
55	
58	
53	
60	
60	
52	
61	
55	
59	
55	
48	
44	
60	
49	
45	
48	
58	
61	
43	
58	
57	
47	
49	
58	
51	
48	
56	
54	
57	
55	
55	
67	
58	
65	
48	
62	
53	
58	
57	
50	
43	
47	
55	
61	
61	
55	
74	
61	
62	
55	
55	
61	
59	
56	
45	
56	
55	
45	
62	
52	
57	
55	
63	
62	
62	
44	
60	
48	
59	
62	
54	
39	
51	
63	
57	
57	
54	
52	
47	
59	
61	
69	
55	
58	
46	
48	
56	
53	
55	
50	
60	
47	
50	
52	
56	
58	
68	
44	
58	
53	
48	
48	
60	
64	
68	
73	
43	
66	
49	
54	
62	
45	
71	
48	
44	
70	
52	
54	
45	
60	
55	
64	
58	
58	
57	
52	
51	
48	
54	
50	
52	
51	
61	
55	
45	
48	
55	
43	
59	
58	
65	
51	
55	
62	
53	
52	
41	
43	
43	
64	
50	
58	
61	
66	
48	
43	
57	
57	
66	
60	
56	
54	
63	
49	
62	
59	
55	
49	
58	
54	
50	
61	
57	
57	
40	
58	
40	
47	
57	
52	
61	
56	
33	
54	
48	
48	
46	
56	
58	
46	
47	
49	
55	
64	
41	
50	
64	
48	
46	
54	
58	
48	
46	
49	
58	
51	
49	
61	
53	
64	
56	
53	
50	
45	
56	
55	
51	
49	
62	
57	
48	
53	
55	
52	
62	
49	
63	
70	
45	
49	
43	
50	
47	
52	
49	
45	
55	
46	
50	
46	
44	
55	
58	
44	
47	
67	
55	
53	
57	
40	
52	
49	
56	
44	
57	
37	
44	
54	
56	
48	
61	
53	
63	
58	
45	
41	
57	
48	
36	
41	
49	
57	
54	
57	
34	
43	
44	
41	
74	
45	
44	
57	
65	
52	
45	
44	
49	
44	
50	
47	
53	
57	
39	
55	
58	
59	
44	
56	
67	
51	
63	
53	
51	
50	
58	
53	
50	
60	
47	
50	
46	
52	
38	
58	
50	
46	
53	
47	
36	
36	
39	
55	
53	
48	
42	
43	
49	
41	
39	
44	
43	
70	
50	
48	
48	
54	
45	
38	
56	
44	
44	
56	
44	
43	
35	
56	
55	
25	
45	
42	
56	
50	
46	
51	
46	
44	
40	
47	
57	
47	
49	
54	
52	
50	
50	
57	
52	
52	
49	
60	
47	
67	
45	
41	
54	
58	
44	
50	
37	
57	
51	
42	
37	
68	
62	
51	
53	
60	
41	
33	
53	
57	
55	
51	
56	
42	
40	
54	
52	
39	
48	
46	
39	
39	
47	
46	
47	
43	
49	
44	
50	
54	
32	
39	
45	
41	
38	
51	
55	
37	
54	
44	
44	
51	
50	
43	
37	
33	
45	
41	
51	
37	
40	
57	
37	
36	
54	
53	
38	
53	
41	
52	
44	
52	
54	
52	
36	
45	
45	
46	
48	
53	
44	
43	
38	
41	
44	
53	
43	
43	
43	
38	
50	
48	
60	
42	
47	
51	
52	
45	
48	
43	
43	
49	
52	
43	
60	
51	
52	
50	
41	
36	
32	
51	
48	
45	
51	
32	
46	
42	
38	
41	
39	
42	
46	
54	
41	
37	
49	
51	
40	
37	
46	
41	
45	
53	
44	
43	
42	
38	
40	
36	
39	
52	
47	
37	
52	
50	
44	
49	
45	
49	
33	
37	
50	
42	
48	
52	
48	
55	
48	
37	
54	
54	
47	
44	
45	
55	
63	
55	
46	
44	
49	
45	
40	
36	
45	
42	
57	
41	
50	
46	
41	
33	
48	
45	
44	
46	
53	
41	
38	
45	
46	
49	
39	
41	
45	
37	
73	
51	
49	
44	
39	
41	
35	
48	
46	
44	
53	
34	
37	
33	
52	
37	
39	
45	
50	
31	
48	
40	
41	
35	
40	
42	
46	
45	
47	
38	
45	
61	
49	
55	
49	
40	
46	
43	
39	
39	
45	
44	
41	
41	
40	
49	
40	
26	
44	
47	
55	
44	
38	
41	
51	
35	
48	
42	
34	
35	
49	
60	
48	
40	
45	
61	
49	
43	
39	
40	
43	
48	
42	
52	
37	
49	
34	
50	
49	
38	
49	
44	
44	
48	
42	
43	
53	
40	
45	
43	
43	
30	
50	
45	
38	
35	
34	
37	
53	
40	
23	
47	
31	
45	
46	
30	
37	
43	
38	
33	
34	
38	
43	
31	
46	
42	
36	
48	
38	
48	
51	
44	
47	
47	
48	
45	
46	
46	
38	
47	
40	
27	
34	
43	
43	
48	
36	
40	
25	
34	
65	
40	
42	
50	
41	
50	
41	
41	
37	
42	
47	
41	
38	
39	
35	
29	
47	
46	
31	
34	
32	
30	
51	
33	
39	
37	
48	
40	
42	
58	
51	
36	
47	
40	
47	
47	
36	
31	
41	
43	
48	
35	
41	
47	
38	
35	
53	
50	
37	
30	
32	
46	
42	
39	
28	
44	
29	
45	
39	
35	
40	
40	
37	
41	
32	
42	
35	
40	
41	
38	
41	
33	
43	
55	
37	
39	
38	
33	
33	
37	
37	
48	
43	
37	
40	
38	
35	
43	
41	
39	
45	
46	
45	
36	
40	
40	
41	
36	
46	
52	
45	
48	
33	
37	
39	
31	
43	
48	
30	
46	
39	
38	
31	
35	
31	
46	
48	
42	
37	
44	
37	
38	
42	
48	
35	
40	
34	
32	
43	
45	
40	
37	
30	
41	
35	
38	
50	
47	
30	
42	
33	
40	
33	
36	
29	
39	
31	
40	
43	
49	
39	
46	
33	
40	
47	
35	
37	
40	
38	
50	
30	
51	
28	
42	
30	
35	
39	
40	
26	
35	
47	
34	
48	
32	
38	
38	
37	
34	
42	
43	
35	
28	
46	
39	
44	
41	
34	
33	
38	
40	
38	
38	
59	
42	
29	
42	
32	
32	
46	
41	
45	
31	
34	
37	
26	
33	
27	
34	
34	
51	
45	
37	
28	
46	
44	
31	
37	
28	
35	
41	
48	
42	
38	
45	
42	
31	
39	
32	
38	
35	
40	
29	
35	
29	
33	
37	
26	
41	
39	
30	
29	
43	
52	
30	
34	
34	
49	
35	
32	
40	
37	
40	
38	
38	
34	
30	
25	
50	
44	
33	
29	
49	
24	
43	
43	
36	
38	
43	
33	
44	
31	
30	
48	
40	
36	
44	
32	
34	
37	
37	
29	
34	
40	
29	
40	
29	
40	
34	
48	
42	
38	
30	
33	
45	
35	
34	
33	
38	
30	
34	
28	
30	
32	
33	
31	
39	
35	
37	
29	
32	
35	
29	
43	
38	
44	
42	
43	
38	
47	
32	
30	
40	
39	
28	
39	
38	
30	
27	
28	
25	
34	
27	
29	
42	
35	
37	
25	
35	
36	
39	
31	
34	
39	
25	
39	
36	
32	
27	
41	
37	
34	
35	
27	
33	
25	
29	
32	
35	
24	
30	
29	
31	
32	
37	
32	
45	
34	
34	
28	
22	
32	
47	
42	
42	
45	
24	
30	
27	
42	
34	
31	
48	
45	
30	
35	
36	
31	
49	
32	
27	
23	
22	
35	
29	
34	
29	
33	
25	
30	
36	
41	
33	
30	
39	
35	
43	
27	
33	
35	
30	
25	
26	
39	
35	
37	
38	
39	
27	
42	
31	
32	
32	
30	
19	
36	
31	
32	
28	
35	
31	
35	
32	
34	
38	
33	
43	
33	
35	
37	
42	
34	
33	
29	
37	
26	
45	
42	
39	
23	
27	
40	
29	
35	
24	
32	
27	
22	
35	
33	
40	
26	
35	
34	
25	
24	
42	
40	
36	
41	
33	
45	
30	
34	
29	
28	
32	
41	
34	
45	
35	
30	
34	
31	
33	
28	
31	
36	
43	
38	
26	
40	
33	
39	
37	
38	
34	
38	
36	
30	
33	
27	
32	
35	
37	
26	
36	
37	
29	
28	
43	
23	
31	
27	
21	
31	
26	
36	
24	
31	
28	
24	
27	
29	
31	
35	
38	
38	
33	
35	
34	
34	
30	
34	
32	
36	
32	
39	
31	
28	
24	
27	
19	
39	
36	
28	
39	
35	
37	
36	
36	
32	
46	
28	
30	
36	
33	
39	
36	
28	
29	
36	
30	
40	
29	
28	
29	
40	
38	
32	
38	
19	
30	
27	
42	
33	
32	
25	
25	
23	
38	
33	
27	
34	
33	
26	
38	
41	
32	
33	
29	
40	
36	
33	
36	
25	
31	
34	
14	
39	
30	
28	
33	
42	
42	
43	
36	
31	
36	
43	
29	
28	
24	
25	
35	
39	
36	
26	
27	
38	
36	
31	
29	
35	
24	
21	
41	
16	
34	
30	
29	
38	
29	
25	
28	
39	
46	
23	
20	
21	
33	
26	
34	
27	
37	
32	
21	
30	
32	
36	
37	
29	
26	
26	
25	
37	
33	
30	
25	
24	
26	
36	
31	
25	
25	
27	
29	
42	
36	
31	
25	
34	
29	
28	
30	
37	
26	
41	
30	
26	
33	
29	
28	
24	
33	
33	
33	
32	
27	
27	
34	
18	
31	
27	
24	
27	
30	
35	
34	
25	
22	
32	
23	
31	
21	
34	
26	
21	
23	
31	
32	
25	
37	
27	
33	
23	
36	
37	
33	
30	
28	
23	
37	
28	
34	
28	
18	
26	
41	
27	
35	
28	
37	
34	
38	
20	
27	
31	
25	
39	
34	
27	
36	
27	
34	
35	
38	
38	
24	
41	
32	
23	
32	
28	
24	
25	
31	
20	
18	
30	
42	
36	
31	
24	
31	
24	
30	
28	
20	
25	
38	
40	
23	
26	
26	
28	
25	
30	
26	
30	
25	
28	
30	
29	
26	
33	
26	
25	
29	
31	
26	
29	
29	
23	
30	
18	
27	
23	
26	
19	
24	
28	
25	
34	
20	
22	
29	
25	
24	
32	
35	
26	
29	
32	
30	
30	
35	
30	
21	
36	
42	
38	
34	
30	
28	
22	
28	
29	
39	
29	
26	
34	
22	
32	
16	
28	
36	
34	
28	
33	
29	
28	
27	
35	
25	
32	
22	
29	
27	
24	
27	
25	
25	
23	
31	
22	
31	
35	
24	
26	
19	
23	
18	
31	
26	
25	
31	
33	
24	
24	
35	
23	
25	
22	
40	
35	
35	
36	
32	
21	
31	
19	
25	
26	
34	
33	
27	
29	
19	
29	
24	
26	
29	
24	
27	
21	
30	
38	
34	
25	
24	
26	
22	
38	
24	
21	
29	
21	
28	
28	
32	
20	
27	
34	
30	
30	
31	
24	
38	
28	
27	
34	
26	
25	
24	
37	
30	
29	
31	
26	
33	
26	
28	
24	
28	
23	
17	
28	
25	
32	
27	
33	
18	
27	
26	
30	
26	
25	
26	
30	
24	
26	
17	
32	
37	
27	
33	
40	
22	
30	
36	
24	
21	
27	
23	
28	
36	
23	
22	
25	
19	
29	
29	
30	
26	
32	
28	
28	
33	
33	
24	
32	
28	
32	
34	
33	
20	
33	
24	
30	
16	
24	
15	
31	
33	
31	
27	
26	
25	
25	
31	
30	
25	
29	
34	
25	
29	
14	
21	
36	
21	
30	
25	
17	
24	
25	
21	
26	
25	
29	
30	
19	
28	
23	
26	
30	
26	
37	
34	
25	
28	
28	
25	
21	
26	
19	
28	
32	
27	
26	
20	
22	
28	
26	
25	
34	
31	
28	
22	
23	
29	
31	
30	
31	
22	
31	
19	
24	
29	
29	
24	
28	
25	
22	
26	
24	
31	
20	
24	
28	
26	
31	
20	
30	
31	
23	
25	
22	
33	
29	
23	
22	
24	
23	
28	
34	
22	
21	
26	
24	
33	
35	
32	
24	
21	
23	
34	
25	
28	
27	
33	
22	
23	
29	
25	
27	
20	
25	
29	
21	
24	
31	
18	
32	
30	
34	
34	
31	
21	
30	
20	
24	
21	
32	
27	
21	
30	
34	
30	
27	
18	
31	
34	
19	
28	
27	
29	
17	
24	
23	
30	
30	
23	
29	
25	
18	
26	
22	
23	
23	
22	
21	
21	
22	
27	
21	
26	
27	
25	
24	
20	
28	
30	
23	
19	
29	
17	
22	
23	
18	
23	
12	
24	
24	
27	
24	
15	
32	
20	
22	
32	
27	
24	
21	
27	
29	
20	
21	
29	
19	
22	
21	
17	
30	
23	
24	
17	
28	
25	
27	
28	
30	
25	
19	
27	
18	
27	
20	
30	
18	
28	
20	
28	
29	
21	
29	
20	
26	
25	
28	
16	
22	
21	
22	
30	
27	
21	
35	
28	
17	
17	
33	
24	
18	
16	
20	
27	
20	
21	
25	
33	
21	
25	
24	
31	
23	
23	
17	
16	
21	
24	
23	
23	
23	
17	
22	
22	
28	
28	
27	
19	
23	
25	
15	
14	
30	
26	
28	
21	
20	
29	
15	
22	
29	
25	
21	
30	
16	
17	
16	
22	
29	
32	
21	
19	
26	
17	
23	
20	
14	
23	
19	
22	
34	
20	
28	
19	
15	
20	
32	
28	
19	
19	
33	
27	
22	
19	
17	
28	
33	
20	
23	
23	
26	
16	
28	
28	
20	
33	
23	
22	
24	
20	
21	
22	
29	
25	
19	
22	
34	
27	
24	
21	
32	
21	
20	
21	
21	
19	
38	
26	
25	
20	
19	
24	
27	
21	
20	
21	
19	
27	
17	
19	
20	
27	
19	
23	
29	
30	
31	
24	
19	
18	
23	
19	
23	
14	
28	
20	
27	
29	
23	
25	
25	
29	
24	
23	
24	
14	
27	
25	
24	
22	
18	
28	
24	
32	
22	
24	
24	
19	
25	
19	
14	
25	
23	
21	
25	
24	
18	
18	
27	
12	
28	
20	
25	
28	
21	
20	
28	
12	
21	
22	
30	
30	
31	
26	
13	
30	
19	
27	
27	
20	
19	
26	
14	
30	
19	
25	
26	
18	
23	
21	
26	
24	
24	
22	
25	
26	
20	
21	
16	
23	
25	
21	
24	
30	
19	
29	
13	
31	
25	
23	
19	
25	
21	
24	
26	
25	
23	
17	
23	
23	
19	
13	
18	
21	
22	
21	
23	
19	
17	
22	
24	
22	
22	
25	
27	
17	
23	
17	
17	
18	
24	
18	
19	
17	
23	
30	
27	
22	
22	
24	
16	
23	
30	
21	
22	
27	
22	
11	
20	
23	
11	
18	
27	
16	
18	
20	
10	
20	
21	
16	
26	
18	
26	
23	
22	
24	
24	
22	
20	
19	
19	
22	
16	
20	
26	
23	
20	
26	
24	
22	
22	
19	
22	
25	
21	
11	
16	
18	
23	
19	
22	
21	
18	
22	
19	
23	
20	
27	
15	
15	
22	
22	
19	
26	
25	
28	
27	
18	
21	
20	
21	
24	
10	
22	
19	
15	
29	
29	
28	
24	
16	
18	
24	
17	
17	
26	
18	
18	
23	
20	
27	
21	
25	
26	
17	
22	
24	
24	
21	
19	
22	
17	
20	
18	
18	
34	
29	
19	
19	
27	
22	
14	
27	
14	
17	
28	
24	
22	
27	
21	
17	
28	
20	
15	
28	
29	
22	
18	
28	
22	
17	
21	
22	
21	
21	
18	
16	
21	
21	
16	
27	
17	
16	
14	
15	
14	
23	
14	
19	
29	
20	
20	
23	
27	
23	
18	
14	
15	
17	
22	
18	
22	
19	
19	
26	
21	
17	
18	
18	
19	
21	
25	
21	
25	
25	
13	
16	
12	
17	
16	
30	
24	
22	
25	
17	
20	
19	
20	
16	
15	
22	
23	
18	
25	
18	
16	
9	
20	
16	
20	
20	
20	
21	
15	
19	
19	
23	
21	
20	
17	
15	
19	
21	
20	
16	
16	
16	
22	
15	
25	
19	
22	
16	
18	
20	
17	
27	
15	
21	
25	
24	
23	
24	
27	
14	
19	
16	
30	
19	
18	
16	
15	
24	
24	
18	
20	
24	
24	
17	
22	
16	
20	
13	
22	
11	
18	
17	
21	
21	
20	
22	
16	
16	
23	
18	
15	
21	
16	
22	
13	
15	
20	
16	
16	
22	
26	
18	
26	
29	
16	
11	
17	
19	
21	
22	
27	
17	
20	
20	
28	
16	
15	
21	
17	
14	
26	
30	
27	
21	
16	
20	
19	
18	
14	
22	
16	
24	
25	
17	
23	
23	
28	
22	
18	
15	
15	
21	
18	
20	
19	
26	
16	
22	
24	
18	
23	
18	
16	
22	
22	
20	
26	
17	
22	
14	
14	
15	
15	
19	
23	
24	
23	
17	
11	
17	
17	
17	
23	
21	
16	
24	
26	
25	
22	
23	
19	
16	
13	
23	
14	
20	
24	
13	
20	
23	
20	
15	
20	
22	
22	
26	
11	
23	
17	
18	
15	
19	
18	
22	
17	
12	
19	
18	
17	
17	
20	
18	
21	
15	
14	
15	
27	
16	
12	
16	
21	
18	
13	
18	
18	
20	
24	
26	
19	
23	
21	
15	
16	
18	
20	
15	
16	
15	
19	
27	
20	
17	
22	
21	
11	
20	
14	
17	
10	
25	
11	
22	
23	
15	
13	
19	
21	
21	
19	
13	
18	
14	
13	
25	
21	
23	
25	
16	
15	
21	
20	
13	
14	
18	
18	
19	
28	
22	
18	
20	
20	
17	
20	
16	
23	
18	
18	
15	
13	
15	
23	
18	
16	
17	
20	
20	
10	
24	
22	
14	
26	
20	
16	
15	
14	
17	
16	
17	
19	
24	
16	
17	
23	
19	
9	
26	
14	
21	
19	
16	
20	
23	
13	
24	
23	
21	
18	
18	
15	
13	
20	
15	
16	
20	
19	
21	
17	
16	
25	
17	
17	
16	
16	
21	
19	
24	
13	
13	
21	
18	
15	
12	
13	
16	
21	
15	
9	
12	
14	
13	
16	
13	
19	
18	
16	
12	
16	
27	
17	
16	
22	
21	
19	
18	
22	
27	
29	
11	
26	
20	
17	
19	
15	
17	
18	
19	
19	
23	
22	
15	
22	
19	
19	
15	
11	
22	
15	
10	
15	
21	
21	
16	
17	
17	
19	
20	
24	
12	
14	
23	
25	
27	
12	
16	
25	
21	
16	
15	
14	
10	
16	
17	
23	
19	
14	
10	
16	
19	
11	
18	
21	
21	
19	
21	
9	
15	
15	
19	
11	
17	
11	
19	
16	
16	
17	
15	
24	
19	
16	
30	
13	
15	
9	
14	
15	
21	
19	
23	
20	
20	
16	
17	
23	
20	
15	
18	
20	
25	
15	
10	
13	
17	
27	
26	
18	
22	
25	
18	
12	
18	
15	
17	
18	
12	
16	
15	
20	
22	
18	
19	
17	
21	
20	
18	
11	
16	
19	
24	
14	
13	
15	
17	
21	
15	
13	
14	
6	
13	
18	
18	
15	
15	
16	
15	
12	
14	
17	
19	
17	
16	
10	
14	
15	
14	
13	
15	
15	
18	
15	
13	
25	
19	
12	
23	
21	
26	
22	
31	
17	
24	
17	
19	
16	
18	
20	
19	
18	
17	
18	
16	
17	
21	
16	
15	
14	
16	
25	
19	
18	
14	
12	
14	
19	
18	
16	
19	
15	
20	
22	
18	
30	
12	
19	
20	
16	
14	
17	
15	
16	
19	
15	
13	
13	
13	
13	
18	
15	
19	
12	
10	
12	
19	
15	
14	
14	
22	
27	
14	
27	
13	
15	
12	
25	
19	
16	
23	
13	
14	
11	
21	
14	
24	
20	
16	
22	
20	
21	
13	
18	
15	
13	
13	
19	
13	
13	
12	
13	
24	
13	
11	
11	
9	
23	
17	
15	
22	
9	
18	
18	
18	
17	
18	
14	
14	
14	
13	
19	
18	
16	
12	
20	
11	
14	
22	
23	
18	
16	
13	
11	
20	
22	
11	
6	
20	
19	
18	
23	
21	
21	
13	
15	
14	
18	
8	
14	
16	
10	
15	
18	
11	
12	
12	
8	
15	
17	
16	
15	
14	
19	
10	
18	
13	
11	
17	
21	
21	
22	
12	
14	
10	
14	
14	
15	
14	
15	
16	
13	
13	
13	
15	
23	
20	
20	
9	
17	
12	
16	
16	
16	
21	
20	
16	
13	
9	
11	
19	
16	
15	
16	
17	
14	
19	
11	
21	
17	
15	
8	
20	
19	
9	
16	
14	
13	
11	
7	
15	
12	
13	
18	
8	
8	
11	
16	
17	
14	
18	
17	
14	
14	
17	
18	
20	
17	
13	
14	
20	
12	
15	
16	
11	
12	
15	
16	
19	
11	
23	
11	
18	
14	
18	
11	
17	
25	
15	
17	
10	
16	
19	
13	
9	
16	
8	
11	
16	
16	
17	
17	
15	
16	
12	
13	
23	
11	
17	
18	
15	
15	
24	
16	
15	
15	
9	
18	
16	
17	
17	
14	
17	
14	
14	
21	
21	
15	
10	
17	
9	
21	
12	
15	
17	
23	
12	
16	
12	
18	
21	
12	
8	
9	
8	
9	
10	
14	
12	
22	
18	
17	
18	
15	
15	
14	
17	
15	
14	
24	
21	
18	
7	
8	
21	
13	
17	
15	
14	
17	
15	
10	
20	
14	
9	
8	
17	
13	
8	
22	
20	
20	
15	
18	
16	
15	
16	
21	
17	
17	
12	
14	
19	
12	
18	
10	
11	
20	
16	
16	
17	
7	
16	
15	
16	
15	
10	
17	
11	
21	
17	
13	
20	
11	
22	
16	
14	
9	
11	
17	
11	
20	
15	
17	
21	
20	
15	
27	
11	
19	
17	
18	
13	
18	
10	
11	
15	
11	
11	
17	
14	
17	
16	
7	
22	
10	
13	
22	
18	
10	
13	
11	
13	
16	
16	
18	
15	
15	
11	
12	
13	
12	
11	
18	
17	
15	
17	
15	
18	
20	
15	
7	
15	
11	
10	
8	
13	
11	
15	
20	
17	
17	
15	
17	
9	
16	
15	
15	
18	
16	
12	
17	
13	
8	
17	
12	
24	
13	
13	
10	
17	
13	
17	
18	
20	
15	
12	
13	
19	
15	
8	
12	
19	
19	
13	
9	
10	
14	
14	
13	
14	
11	
16	
13	
17	
10	
16	
10	
12	
15	
16	
17	
16	
14	
12	
15	
11	
8	
18	
15	
17	
10	
7	
11	
18	
13	
14	
12	
13	
15	
15	
17	
18	
9	
17	
15	
20	
18	
11	
14	
10	
12	
8	
11	
16	
13	
12	
18	
13	
10	
9	
12	
7	
7	
7	
25	
18	
7	
15	
17	
18	
8	
10	
13	
11	
10	
10	
13	
17	
16	
13	
9	
16	
20	
15	
18	
14	
18	
16	
15	
8	
14	
7	
23	
14	
12	
15	
3	
14	
7	
13	
12	
12	
13	
21	
16	
18	
21	
12	
12	
7	
6	
17	
13	
10	
14	
11	
13	
12	
16	
9	
11	
12	
10	
17	
15	
20	
13	
17	
19	
8	
11	
12	
13	
11	
17	
12	
15	
11	
13	
11	
13	
7	
16	
16	
14	
5	
15	
14	
10	
10	
11	
15	
17	
16	
11	
21	
15	
14	
11	
17	
16	
13	
13	
8	
9	
14	
10	
13	
18	
7	
15	
17	
6	
14	
18	
14	
15	
16	
10	
20	
17	
15	
17	
8	
12	
10	
13	
12	
10	
9	
11	
10	
11	
16	
11	
16	
8	
15	
12	
13	
13	
13	
14	
12	
15	
21	
11	
12	
13	
15	
11	
15	
14	
21	
10	
9	
11	
16	
15	
13	
13	
10	
13	
18	
16	
10	
9	
16	
23	
18	
12	
12	
12	
11	
18	
14	
15	
12	
16	
15	
9	
13	
14	
10	
8	
8	
17	
12	
8	
11	
13	
13	
13	
17	
11	
19	
12	
18	
9	
18	
13	
16	
14	
8	
12	
18	
9	
13	
11	
14	
13	
11	
14	
14	
12	
10	
15	
13	
5	
15	
14	
12	
11	
19	
16	
17	
10	
9	
8	
14	
19	
9	
14	
11	
17	
12	
11	
17	
15	
9	
14	
18	
13	
5	
13	
16	
15	
12	
13	
13	
12	
14	
13	
19	
10	
10	
15	
9	
15	
11	
9	
15	
16	
16	
9	
16	
8	
6	
9	
11	
13	
9	
18	
11	
14	
15	
15	
15	
22	
21	
10	
11	
16	
16	
18	
14	
15	
12	
13	
9	
11	
19	
18	
14	
20	
21	
13	
13	
11	
15	
9	
15	
17	
10	
19	
9	
12	
17	
6	
10	
20	
12	
13	
12	
9	
21	
17	
13	
10	
13	
11	
7	
14	
10	
9	
14	
15	
12	
15	
13	
9	
11	
15	
14	
8	
16	
10	
16	
17	
14	
7	
21	
11	
11	
17	
12	
9	
8	
13	
8	
13	
6	
8	
10	
9	
23	
14	
14	
11	
15	
10	
10	
12	
10	
9	
16	
13	
12	
16	
9	
17	
15	
12	
15	
15	
8	
11	
15	
15	
9	
17	
12	
3	
11	
16	
8	
14	
11	
14	
12	
7	
11	
13	
7	
23	
11	
16	
9	
12	
10	
12	
16	
13	
8	
8	
8	
16	
12	
17	
12	
8	
12	
9	
12	
17	
9	
8	
20	
13	
13	
14	
13	
11	
6	
12	
9	
10	
12	
11	
12	
11	
6	
14	
13	
10	
10	
12	
12	
13	
14	
14	
15	
7	
11	
11	
7	
11	
13	
15	
11	
10	
14	
7	
9	
8	
13	
15	
10	
8	
14	
12	
8	
13	
15	
9	
16	
7	
13	
9	
11	
16	
19	
8	
13	
8	
13	
8	
5	
14	
10	
15	
9	
12	
7	
19	
13	
8	
5	
14	
16	
10	
13	
18	
11	
16	
15	
19	
13	
13	
15	
8	
12	
12	
9	
16	
13	
18	
17	
20	
15	
11	
10	
13	
14	
4	
7	
13	
14	
13	
17	
8	
13	
6	
13	
10	
9	
12	
11	
9	
13	
11	
13	
6	
12	
5	
9	
11	
14	
15	
9	
11	
12	
10	
14	
10	
7	
12	
10	
15	
8	
12	
17	
20	
16	
5	
10	
15	
8	
14	
10	
6	
11	
9	
12	
10	
13	
9	
10	
9	
13	
12	
14	
13	
7	
15	
13	
11	
10	
13	
16	
7	
7	
8	
11	
10	
7	
21	
11	
13	
12	
15	
10	
14	
11	
18	
7	
7	
8	
9	
13	
17	
14	
8	
6	
11	
11	
20	
5	
19	
11	
8	
19	
12	
11	
13	
11	
5	
18	
7	
10	
4	
14	
10	
10	
14	
7	
7	
9	
7	
11	
20	
5	
15	
8	
18	
9	
6	
11	
13	
13	
10	
7	
12	
7	
11	
14	
8	
15	
10	
12	
10	
9	
8	
14	
8	
11	
11	
7	
14	
8	
12	
14	
13	
13	
9	
11	
9	
9	
11	
10	
11	
10	
13	
11	
11	
4	
12	
16	
11	
6	
7	
14	
12	
9	
14	
15	
13	
8	
8	
15	
15	
15	
9	
7	
13	
9	
11	
9	
9	
12	
11	
17	
15	
10	
12	
13	
10	
14	
17	
9	
5	
12	
9	
11	
11	
14	
6	
6	
16	
8	
7	
10	
12	
12	
16	
10	
11	
7	
9	
12	
7	
7	
11	
8	
15	
12	
12	
9	
17	
12	
10	
11	
9	
14	
12	
15	
9	
8	
11	
11	
10	
13	
11	
8	
10	
7	
11	
7	
7	
11	
10	
10	
11	
13	
13	
9	
11	
15	
4	
8	
7	
24	
16	
9	
12	
16	
16	
10	
8	
11	
7	
14	
9	
13	
9	
14	
13	
18	
7	
13	
10	
10	
5	
10	
14	
8	
6	
7	
10	
11	
14	
10	
6	
12	
20	
7	
12	
6	
8	
9	
7	
12	
10	
8	
7	
12	
10	
21	
14	
6	
12	
10	
15	
11	
12	
12	
9	
11	
12	
8	
8	
12	
12	
18	
10	
8	
10	
11	
8	
15	
9	
10	
8	
8	
10	
6	
11	
6	
12	
9	
12	
11	
9	
10	
6	
14	
9	
11	
8	
7	
6	
8	
13	
12	
4	
12	
7	
13	
9	
6	
7	
7	
7	
6	
11	
10	
12	
5	
12	
13	
17	
12	
14	
14	
12	
9	
13	
13	
13	
11	
13	
8	
10	
7	
8	
12	
12	
7	
6	
3	
6	
14	
4	
10	
10	
8	
6	
12	
16	
9	
10	
8	
7	
17	
10	
14	
9	
16	
9	
8	
11	
16	
11	
16	
8	
12	
7	
8	
11	
8	
14	
9	
12	
9	
9	
14	
16	
7	
5	
10	
9	
12	
6	
10	
13	
12	
3	
9	
5	
