#PicoHarp 300  Histogram Data			04/21/2022 03:40:05 PM
#channels per curve
31250
#display curve no.
0	
#memory block no.
0	
#ns/channel
0.0320	
#counts
0	
0	
1	
1	
0	
0	
2	
0	
0	
1	
1	
1	
2	
2	
0	
0	
0	
0	
0	
3	
0	
0	
0	
1	
0	
1	
0	
1	
0	
0	
2	
0	
0	
2	
0	
1	
2	
1	
0	
0	
2	
0	
1	
0	
0	
0	
0	
2	
0	
1	
1	
0	
2	
1	
0	
0	
2	
1	
0	
0	
1	
1	
0	
0	
1	
1	
1	
0	
1	
0	
1	
2	
0	
0	
0	
0	
2	
1	
0	
0	
1	
2	
0	
0	
0	
0	
1	
0	
0	
0	
1	
0	
0	
0	
0	
0	
1	
0	
2	
1	
1	
0	
0	
0	
0	
1	
0	
0	
1	
0	
0	
1	
0	
1	
1	
0	
1	
0	
1	
0	
1	
0	
0	
1	
0	
2	
0	
1	
1	
2	
0	
1	
1	
0	
1	
0	
0	
1	
0	
1	
1	
1	
0	
0	
0	
0	
0	
0	
1	
0	
0	
1	
2	
0	
0	
1	
0	
0	
0	
0	
1	
2	
0	
0	
0	
0	
0	
0	
0	
0	
0	
2	
0	
0	
2	
1	
1	
1	
0	
1	
1	
1	
0	
0	
0	
2	
0	
1	
0	
0	
0	
1	
0	
1	
1	
0	
0	
0	
0	
2	
0	
1	
0	
1	
0	
0	
2	
1	
1	
0	
0	
1	
0	
0	
0	
1	
1	
1	
2	
0	
1	
2	
0	
1	
0	
1	
1	
0	
1	
1	
1	
0	
0	
0	
1	
1	
0	
1	
0	
0	
1	
2	
0	
1	
0	
1	
0	
2	
2	
0	
0	
1	
0	
0	
1	
0	
2	
0	
2	
0	
2	
0	
0	
1	
0	
0	
1	
1	
2	
0	
0	
0	
0	
1	
2	
1	
3	
1	
0	
0	
0	
0	
0	
3	
0	
1	
0	
0	
1	
1	
0	
0	
1	
2	
0	
1	
1	
2	
0	
0	
0	
2	
1	
0	
0	
0	
0	
0	
0	
0	
0	
1	
1	
0	
1	
0	
0	
0	
0	
1	
1	
0	
0	
1	
2	
0	
1	
1	
1	
0	
3	
1	
0	
1	
1	
0	
0	
0	
0	
0	
0	
1	
1	
1	
1	
0	
0	
0	
0	
1	
0	
0	
0	
0	
0	
0	
0	
0	
0	
1	
0	
0	
0	
0	
0	
0	
0	
1	
0	
0	
0	
0	
1	
0	
0	
0	
0	
1	
0	
0	
0	
0	
0	
0	
0	
1	
0	
0	
1	
0	
0	
1	
0	
2	
0	
2	
0	
0	
0	
0	
0	
0	
1	
1	
0	
2	
0	
0	
0	
0	
1	
2	
1	
0	
0	
2	
1	
2	
2	
0	
0	
0	
0	
0	
1	
0	
1	
0	
1	
0	
0	
0	
1	
1	
1	
0	
1	
0	
1	
0	
1	
0	
0	
0	
1	
0	
0	
0	
1	
1	
1	
0	
1	
0	
0	
0	
3	
1	
0	
3	
1	
0	
1	
0	
1	
0	
0	
0	
0	
0	
2	
1	
1	
0	
1	
0	
0	
0	
1	
0	
0	
0	
0	
2	
1	
0	
0	
1	
1	
0	
0	
0	
0	
1	
1	
0	
0	
0	
0	
0	
1	
0	
0	
0	
1	
0	
0	
2	
1	
0	
2	
1	
0	
0	
0	
0	
0	
2	
1	
1	
0	
0	
0	
1	
0	
0	
1	
1	
1	
0	
1	
1	
0	
2	
0	
1	
0	
0	
0	
2	
1	
1	
1	
1	
0	
0	
0	
2	
0	
0	
1	
0	
3	
0	
0	
0	
0	
1	
0	
0	
2	
1	
0	
1	
1	
2	
0	
0	
0	
0	
1	
0	
0	
2	
1	
0	
1	
0	
1	
1	
0	
0	
0	
1	
0	
0	
1	
0	
3	
1	
2	
0	
0	
0	
0	
1	
1	
1	
0	
0	
1	
0	
0	
0	
0	
0	
1	
0	
0	
0	
0	
0	
1	
1	
0	
0	
0	
0	
1	
0	
0	
0	
0	
1	
0	
1	
0	
0	
0	
1	
1	
0	
0	
1	
0	
0	
0	
1	
1	
1	
1	
0	
1	
2	
0	
0	
1	
2	
0	
0	
0	
2	
0	
0	
0	
0	
1	
0	
0	
0	
0	
0	
0	
1	
0	
1	
1	
0	
0	
0	
0	
0	
0	
1	
0	
0	
0	
1	
1	
1	
0	
1	
0	
0	
1	
0	
0	
0	
0	
0	
1	
0	
0	
0	
3	
0	
0	
0	
0	
1	
0	
1	
0	
0	
0	
1	
0	
0	
1	
0	
0	
0	
2	
0	
0	
2	
0	
1	
0	
0	
0	
1	
0	
0	
0	
0	
0	
0	
2	
0	
0	
0	
1	
0	
0	
0	
0	
3	
0	
1	
2	
0	
1	
3	
0	
1	
0	
0	
1	
1	
2	
0	
0	
0	
0	
0	
0	
0	
1	
0	
0	
0	
0	
2	
0	
1	
1	
0	
2	
0	
0	
0	
0	
0	
2	
1	
0	
0	
0	
1	
0	
0	
1	
1	
1	
1	
1	
0	
0	
1	
0	
1	
0	
1	
2	
0	
3	
2	
0	
0	
0	
0	
0	
0	
1	
0	
0	
1	
1	
0	
0	
0	
0	
0	
1	
1	
0	
1	
0	
1	
0	
0	
0	
1	
0	
0	
3	
0	
1	
3	
0	
2	
0	
0	
0	
0	
1	
0	
3	
0	
0	
0	
0	
2	
0	
0	
0	
1	
0	
0	
2	
0	
1	
1	
0	
0	
0	
0	
0	
0	
0	
0	
1	
1	
0	
1	
0	
0	
0	
1	
0	
0	
0	
0	
0	
0	
0	
0	
0	
0	
0	
0	
0	
0	
1	
1	
0	
1	
1	
0	
0	
2	
1	
0	
0	
0	
2	
1	
1	
0	
0	
2	
2	
0	
0	
0	
0	
1	
0	
0	
0	
0	
1	
1	
0	
0	
1	
1	
0	
1	
1	
0	
0	
0	
0	
1	
0	
1	
0	
2	
0	
2	
1	
0	
3	
0	
0	
0	
0	
2	
0	
0	
1	
1	
0	
1	
1	
0	
1	
0	
0	
2	
0	
0	
0	
0	
2	
0	
0	
1	
0	
0	
2	
0	
3	
0	
0	
0	
0	
1	
1	
3	
0	
2	
4	
5	
9	
2	
5	
9	
6	
7	
5	
11	
7	
17	
13	
12	
20	
26	
26	
18	
32	
28	
31	
29	
31	
40	
41	
42	
60	
52	
60	
56	
53	
65	
67	
77	
63	
73	
78	
70	
87	
74	
68	
68	
74	
83	
81	
93	
86	
86	
80	
74	
81	
76	
82	
77	
80	
88	
90	
80	
69	
69	
75	
79	
61	
75	
87	
89	
71	
99	
95	
90	
75	
71	
88	
61	
71	
78	
71	
76	
89	
78	
88	
76	
73	
78	
93	
86	
88	
90	
75	
87	
82	
70	
83	
79	
91	
83	
88	
80	
82	
66	
91	
84	
75	
70	
79	
75	
86	
79	
85	
83	
81	
96	
75	
83	
93	
78	
65	
97	
90	
68	
87	
82	
84	
79	
84	
81	
83	
73	
77	
82	
80	
89	
84	
73	
66	
98	
68	
82	
97	
84	
65	
64	
89	
78	
80	
97	
73	
78	
66	
77	
64	
86	
70	
60	
67	
89	
86	
87	
77	
85	
69	
67	
84	
64	
77	
80	
83	
73	
73	
86	
80	
82	
100	
77	
70	
79	
65	
71	
66	
64	
85	
64	
81	
76	
88	
76	
75	
74	
71	
78	
81	
90	
82	
82	
59	
71	
62	
80	
64	
60	
62	
81	
62	
60	
73	
57	
81	
76	
74	
94	
82	
68	
63	
75	
64	
75	
78	
70	
67	
76	
71	
80	
60	
88	
74	
73	
71	
62	
62	
77	
71	
87	
63	
73	
90	
82	
75	
66	
74	
76	
71	
49	
66	
80	
91	
70	
65	
72	
71	
74	
59	
72	
67	
70	
84	
76	
70	
88	
77	
70	
77	
84	
77	
63	
81	
76	
75	
69	
70	
63	
77	
74	
76	
84	
69	
79	
88	
82	
72	
72	
85	
58	
75	
52	
67	
74	
91	
53	
63	
57	
62	
82	
69	
86	
81	
47	
88	
64	
69	
78	
55	
67	
81	
70	
60	
78	
66	
64	
71	
75	
71	
73	
66	
74	
75	
55	
77	
67	
66	
67	
76	
73	
73	
84	
63	
76	
63	
64	
66	
62	
64	
67	
75	
72	
74	
74	
67	
67	
57	
77	
70	
55	
67	
56	
70	
56	
78	
58	
65	
71	
79	
77	
68	
60	
65	
66	
83	
54	
57	
75	
67	
72	
72	
67	
59	
63	
69	
61	
66	
63	
64	
79	
81	
58	
74	
70	
63	
79	
68	
69	
69	
64	
62	
75	
68	
71	
70	
67	
62	
59	
48	
53	
63	
67	
82	
71	
50	
73	
72	
66	
88	
56	
59	
58	
58	
59	
57	
72	
63	
54	
65	
65	
60	
74	
71	
54	
63	
61	
63	
50	
72	
62	
59	
67	
64	
71	
54	
70	
61	
74	
70	
54	
75	
70	
84	
57	
61	
63	
64	
57	
51	
60	
57	
57	
68	
42	
67	
68	
53	
67	
81	
84	
74	
78	
63	
57	
63	
78	
60	
66	
57	
49	
77	
70	
59	
57	
72	
61	
60	
69	
51	
72	
60	
63	
65	
74	
63	
59	
65	
54	
71	
65	
66	
47	
67	
50	
52	
62	
59	
61	
69	
56	
63	
79	
70	
70	
64	
65	
56	
56	
68	
66	
51	
66	
69	
59	
59	
45	
62	
71	
69	
67	
80	
58	
61	
58	
61	
62	
58	
63	
62	
54	
60	
60	
66	
58	
64	
67	
50	
60	
59	
56	
50	
65	
56	
48	
52	
60	
62	
57	
73	
58	
78	
65	
64	
62	
67	
50	
61	
70	
66	
58	
60	
45	
60	
58	
64	
61	
65	
43	
74	
60	
72	
63	
66	
64	
61	
75	
62	
64	
66	
55	
59	
52	
60	
58	
62	
60	
58	
53	
65	
60	
72	
78	
58	
51	
76	
54	
54	
66	
67	
52	
54	
62	
71	
50	
71	
50	
60	
66	
64	
61	
67	
61	
49	
55	
51	
49	
72	
58	
68	
48	
66	
53	
67	
65	
38	
81	
54	
40	
54	
56	
49	
56	
63	
53	
52	
46	
68	
40	
66	
72	
66	
56	
52	
56	
67	
55	
60	
60	
82	
69	
50	
64	
63	
57	
64	
63	
59	
57	
54	
60	
59	
61	
52	
64	
52	
54	
64	
44	
57	
55	
49	
64	
60	
64	
63	
75	
49	
72	
53	
59	
45	
56	
63	
46	
44	
55	
72	
57	
53	
52	
54	
56	
57	
48	
62	
52	
53	
49	
58	
61	
60	
49	
48	
51	
65	
56	
62	
50	
54	
56	
47	
64	
68	
52	
52	
41	
54	
63	
65	
61	
58	
63	
52	
51	
69	
69	
54	
37	
59	
55	
44	
71	
60	
61	
69	
47	
53	
59	
50	
54	
60	
56	
55	
62	
63	
49	
55	
52	
60	
53	
61	
38	
51	
53	
49	
57	
57	
53	
62	
60	
65	
58	
52	
69	
52	
53	
54	
53	
42	
56	
53	
61	
55	
62	
70	
46	
62	
53	
47	
51	
49	
40	
67	
50	
53	
54	
59	
54	
72	
55	
56	
56	
60	
53	
58	
46	
53	
53	
40	
51	
63	
62	
60	
54	
48	
49	
40	
60	
59	
66	
79	
41	
49	
53	
67	
74	
60	
57	
49	
53	
54	
50	
63	
47	
54	
56	
54	
36	
54	
56	
43	
45	
50	
63	
57	
59	
55	
53	
61	
43	
38	
62	
60	
57	
51	
43	
60	
43	
52	
50	
47	
47	
46	
47	
52	
44	
56	
59	
52	
55	
50	
55	
50	
45	
46	
54	
62	
47	
56	
62	
41	
51	
55	
45	
59	
50	
57	
62	
54	
49	
51	
42	
49	
49	
49	
52	
48	
44	
51	
60	
48	
53	
49	
62	
47	
61	
53	
51	
52	
47	
53	
48	
57	
60	
49	
52	
55	
61	
54	
51	
36	
46	
47	
63	
54	
54	
49	
48	
58	
42	
55	
53	
46	
60	
48	
49	
57	
54	
57	
45	
45	
47	
54	
53	
45	
59	
51	
48	
39	
39	
55	
66	
61	
50	
48	
49	
53	
52	
50	
50	
47	
56	
36	
49	
48	
41	
41	
38	
46	
50	
48	
47	
50	
51	
69	
50	
50	
48	
56	
56	
41	
60	
64	
45	
45	
40	
55	
49	
58	
48	
52	
58	
59	
43	
56	
46	
43	
64	
39	
43	
37	
36	
45	
41	
53	
67	
51	
47	
56	
47	
52	
57	
57	
42	
46	
53	
48	
52	
49	
52	
62	
54	
55	
47	
37	
61	
41	
40	
41	
47	
52	
35	
49	
42	
49	
36	
51	
51	
50	
40	
57	
41	
43	
46	
39	
37	
48	
44	
42	
40	
41	
55	
37	
53	
61	
69	
56	
53	
61	
41	
46	
54	
52	
47	
50	
44	
51	
57	
56	
46	
50	
44	
56	
58	
53	
48	
41	
36	
53	
50	
46	
47	
42	
53	
42	
54	
56	
36	
51	
61	
47	
43	
41	
39	
39	
40	
48	
49	
47	
45	
50	
53	
40	
49	
53	
27	
56	
44	
45	
61	
40	
47	
47	
41	
49	
46	
53	
55	
50	
46	
53	
53	
39	
53	
48	
43	
68	
42	
49	
43	
50	
45	
41	
59	
43	
38	
51	
51	
46	
47	
48	
50	
43	
39	
46	
52	
53	
42	
50	
48	
39	
49	
43	
42	
57	
45	
46	
47	
50	
56	
37	
53	
39	
57	
35	
37	
48	
41	
51	
38	
53	
38	
45	
47	
52	
64	
43	
43	
44	
41	
45	
36	
47	
35	
49	
47	
47	
46	
43	
42	
37	
43	
36	
35	
56	
52	
39	
48	
63	
37	
48	
41	
47	
35	
52	
41	
44	
35	
47	
47	
54	
45	
44	
38	
43	
46	
43	
31	
51	
46	
41	
46	
42	
46	
51	
36	
47	
44	
40	
36	
46	
47	
49	
45	
40	
39	
38	
43	
40	
47	
48	
35	
29	
47	
51	
33	
52	
46	
44	
41	
33	
46	
43	
33	
62	
41	
39	
38	
38	
47	
48	
39	
35	
48	
52	
42	
44	
50	
36	
35	
45	
49	
48	
51	
41	
39	
43	
32	
50	
40	
30	
57	
48	
42	
39	
46	
39	
41	
39	
43	
41	
46	
41	
41	
59	
39	
44	
49	
43	
56	
44	
44	
40	
37	
38	
53	
50	
41	
48	
40	
43	
49	
41	
34	
48	
36	
43	
50	
51	
46	
41	
32	
55	
35	
38	
40	
38	
48	
47	
31	
30	
47	
46	
38	
45	
41	
45	
34	
42	
55	
49	
44	
42	
31	
48	
49	
50	
46	
34	
40	
43	
37	
43	
41	
37	
40	
35	
45	
34	
38	
39	
39	
38	
43	
45	
39	
34	
35	
36	
49	
48	
23	
49	
37	
51	
31	
28	
53	
44	
35	
40	
26	
40	
47	
39	
39	
38	
41	
43	
38	
53	
50	
46	
50	
30	
30	
35	
32	
34	
35	
25	
33	
45	
47	
46	
46	
32	
65	
38	
45	
39	
57	
42	
40	
37	
41	
38	
41	
50	
26	
31	
31	
54	
46	
40	
44	
45	
43	
48	
45	
34	
43	
38	
43	
62	
45	
39	
44	
46	
36	
40	
47	
43	
36	
40	
39	
39	
35	
48	
43	
37	
42	
33	
55	
41	
37	
38	
55	
45	
35	
31	
41	
51	
39	
50	
45	
49	
42	
41	
44	
36	
44	
42	
36	
36	
48	
26	
40	
48	
42	
35	
33	
31	
46	
35	
46	
47	
38	
29	
30	
33	
33	
43	
40	
42	
54	
31	
35	
38	
50	
35	
32	
38	
47	
41	
43	
42	
45	
51	
41	
38	
28	
37	
51	
39	
33	
43	
39	
27	
29	
36	
28	
37	
35	
38	
44	
35	
38	
50	
42	
41	
47	
40	
41	
42	
30	
43	
46	
40	
52	
49	
41	
39	
37	
39	
45	
41	
37	
43	
46	
50	
37	
39	
39	
47	
37	
36	
29	
41	
47	
57	
34	
40	
38	
39	
44	
28	
38	
45	
43	
36	
56	
33	
41	
31	
33	
33	
41	
43	
33	
38	
26	
37	
39	
42	
47	
41	
42	
35	
45	
48	
33	
30	
39	
27	
37	
46	
37	
46	
37	
39	
32	
47	
41	
41	
39	
44	
44	
50	
41	
33	
47	
32	
34	
40	
37	
42	
43	
41	
29	
37	
36	
37	
48	
38	
36	
47	
28	
35	
38	
48	
50	
40	
38	
37	
36	
33	
38	
32	
30	
38	
42	
44	
41	
32	
38	
30	
33	
44	
41	
39	
33	
42	
32	
35	
34	
41	
45	
39	
40	
30	
39	
43	
44	
42	
39	
40	
39	
42	
39	
45	
40	
33	
30	
39	
47	
32	
43	
31	
29	
39	
42	
36	
48	
43	
43	
34	
26	
34	
25	
29	
45	
31	
33	
35	
44	
36	
35	
37	
27	
41	
37	
39	
29	
40	
43	
32	
48	
34	
29	
41	
36	
32	
24	
41	
28	
43	
39	
46	
37	
37	
34	
34	
42	
34	
40	
31	
34	
32	
40	
32	
23	
34	
40	
35	
37	
43	
27	
29	
37	
50	
25	
34	
38	
35	
36	
36	
25	
29	
22	
28	
33	
48	
33	
43	
36	
33	
30	
36	
24	
36	
30	
34	
31	
33	
27	
34	
28	
38	
32	
33	
29	
28	
49	
33	
37	
31	
42	
29	
40	
33	
50	
34	
45	
32	
39	
43	
35	
35	
34	
31	
41	
40	
42	
37	
28	
28	
45	
35	
42	
36	
46	
27	
36	
38	
27	
36	
38	
38	
47	
45	
29	
37	
38	
36	
28	
26	
28	
36	
37	
42	
30	
45	
39	
33	
35	
43	
32	
32	
36	
30	
29	
34	
37	
32	
31	
38	
43	
40	
37	
40	
39	
33	
28	
43	
45	
41	
38	
45	
45	
38	
44	
36	
21	
32	
41	
34	
39	
26	
39	
32	
22	
33	
32	
30	
30	
35	
30	
29	
32	
37	
33	
33	
30	
37	
30	
37	
35	
28	
43	
30	
37	
38	
36	
29	
40	
40	
34	
38	
39	
34	
41	
40	
43	
42	
42	
38	
35	
36	
30	
42	
23	
35	
36	
35	
36	
46	
38	
35	
36	
28	
36	
31	
29	
43	
29	
22	
42	
41	
37	
37	
29	
34	
35	
23	
26	
35	
28	
41	
35	
38	
35	
37	
31	
32	
31	
27	
38	
33	
35	
27	
29	
43	
37	
36	
20	
29	
30	
27	
38	
34	
34	
38	
26	
37	
25	
32	
34	
26	
32	
33	
30	
27	
32	
40	
28	
31	
37	
32	
32	
33	
37	
27	
27	
32	
37	
41	
31	
27	
39	
36	
29	
43	
40	
29	
36	
29	
31	
33	
31	
23	
30	
37	
40	
38	
35	
34	
37	
38	
33	
25	
36	
33	
33	
32	
32	
20	
33	
35	
28	
28	
30	
26	
36	
39	
35	
32	
24	
27	
38	
25	
33	
20	
35	
32	
31	
28	
35	
21	
26	
29	
28	
36	
26	
32	
39	
33	
23	
38	
35	
29	
32	
29	
34	
36	
26	
34	
42	
38	
27	
30	
27	
25	
25	
38	
33	
37	
33	
29	
36	
35	
32	
25	
30	
36	
28	
30	
41	
29	
32	
31	
59	
30	
29	
29	
24	
33	
24	
35	
33	
29	
47	
33	
26	
32	
27	
35	
29	
19	
38	
26	
36	
37	
26	
30	
35	
30	
37	
22	
35	
30	
25	
21	
28	
26	
24	
27	
35	
38	
31	
35	
38	
37	
29	
31	
31	
26	
40	
30	
30	
40	
35	
40	
37	
30	
30	
29	
32	
34	
22	
26	
32	
30	
30	
27	
27	
22	
29	
31	
35	
31	
35	
31	
24	
28	
29	
28	
26	
22	
30	
31	
27	
28	
33	
27	
22	
28	
26	
34	
31	
28	
36	
36	
30	
41	
28	
31	
25	
29	
25	
26	
28	
28	
23	
29	
24	
31	
18	
33	
34	
30	
26	
24	
25	
29	
23	
24	
25	
29	
25	
37	
27	
36	
39	
27	
32	
33	
32	
36	
37	
39	
28	
31	
42	
26	
35	
31	
25	
32	
26	
24	
22	
39	
31	
37	
29	
25	
40	
28	
24	
30	
29	
29	
32	
29	
19	
32	
32	
23	
38	
45	
16	
30	
28	
31	
36	
31	
29	
44	
24	
33	
25	
33	
33	
31	
21	
29	
33	
28	
25	
44	
31	
24	
39	
36	
19	
31	
20	
26	
32	
29	
34	
21	
35	
25	
34	
39	
33	
29	
30	
23	
32	
31	
19	
26	
41	
27	
29	
28	
36	
19	
26	
28	
24	
32	
28	
23	
31	
31	
25	
33	
36	
39	
24	
34	
22	
28	
43	
22	
28	
30	
22	
30	
31	
34	
26	
28	
31	
34	
35	
30	
35	
34	
34	
29	
23	
27	
32	
40	
32	
23	
25	
21	
33	
31	
21	
29	
31	
34	
29	
29	
25	
31	
37	
34	
22	
31	
26	
27	
29	
40	
31	
23	
32	
21	
27	
31	
29	
21	
35	
36	
36	
25	
25	
28	
27	
36	
30	
25	
28	
27	
41	
28	
33	
29	
25	
33	
24	
26	
21	
31	
30	
26	
33	
27	
27	
25	
26	
27	
27	
37	
37	
23	
28	
34	
36	
26	
21	
33	
35	
37	
29	
26	
35	
29	
19	
32	
32	
37	
21	
35	
26	
25	
25	
17	
26	
27	
23	
35	
36	
23	
25	
31	
25	
28	
30	
33	
20	
21	
31	
27	
20	
33	
30	
29	
27	
28	
32	
32	
29	
28	
29	
26	
20	
30	
26	
32	
38	
18	
31	
19	
34	
19	
29	
26	
18	
28	
25	
37	
32	
28	
24	
34	
25	
36	
26	
21	
34	
29	
26	
29	
26	
24	
31	
22	
29	
23	
27	
27	
18	
35	
24	
26	
23	
28	
31	
30	
27	
25	
36	
27	
38	
25	
22	
30	
22	
18	
23	
26	
28	
28	
33	
31	
22	
27	
26	
18	
20	
31	
26	
39	
33	
28	
28	
24	
39	
32	
29	
21	
29	
19	
40	
28	
32	
26	
30	
18	
29	
32	
24	
33	
29	
33	
33	
25	
21	
29	
21	
23	
30	
22	
21	
17	
32	
29	
18	
17	
31	
32	
28	
32	
27	
30	
26	
39	
23	
27	
24	
25	
24	
29	
21	
31	
23	
26	
32	
30	
34	
33	
30	
19	
28	
25	
33	
21	
34	
24	
33	
17	
31	
29	
30	
26	
27	
22	
29	
30	
29	
13	
31	
21	
23	
30	
26	
33	
22	
29	
34	
26	
24	
18	
21	
22	
28	
22	
29	
21	
28	
20	
32	
23	
25	
28	
33	
32	
20	
28	
33	
34	
9	
26	
31	
14	
26	
35	
24	
30	
27	
30	
30	
19	
30	
25	
36	
21	
23	
33	
28	
24	
33	
19	
31	
23	
21	
22	
25	
26	
23	
20	
29	
21	
18	
30	
27	
26	
31	
27	
29	
30	
28	
29	
27	
34	
24	
31	
23	
17	
36	
23	
17	
24	
26	
36	
26	
30	
26	
23	
30	
36	
28	
32	
24	
15	
30	
17	
25	
19	
30	
23	
28	
22	
15	
33	
29	
27	
28	
24	
30	
31	
26	
27	
26	
32	
29	
19	
23	
30	
33	
26	
27	
26	
23	
33	
20	
38	
14	
24	
21	
27	
21	
18	
19	
18	
29	
18	
20	
30	
28	
27	
23	
21	
27	
26	
25	
25	
28	
24	
22	
33	
28	
28	
28	
23	
22	
28	
28	
18	
21	
26	
31	
28	
20	
34	
25	
31	
26	
15	
36	
26	
32	
21	
27	
22	
19	
28	
30	
23	
33	
25	
24	
18	
24	
24	
28	
22	
37	
24	
27	
22	
19	
15	
23	
29	
23	
29	
27	
30	
26	
27	
28	
22	
26	
20	
24	
19	
35	
23	
26	
17	
22	
24	
37	
21	
27	
19	
22	
18	
18	
28	
30	
29	
23	
34	
31	
37	
17	
35	
24	
28	
21	
19	
21	
20	
29	
29	
35	
20	
26	
18	
32	
17	
31	
17	
31	
26	
22	
24	
24	
25	
32	
28	
34	
21	
23	
29	
33	
25	
20	
27	
20	
27	
22	
24	
30	
35	
22	
23	
30	
28	
17	
27	
19	
24	
27	
23	
30	
23	
24	
21	
23	
25	
26	
22	
20	
26	
20	
25	
21	
24	
28	
22	
31	
17	
25	
20	
15	
31	
24	
23	
13	
27	
16	
21	
25	
16	
32	
21	
26	
24	
36	
33	
33	
26	
22	
29	
21	
18	
21	
21	
24	
27	
21	
15	
27	
24	
16	
35	
21	
28	
23	
28	
16	
28	
26	
32	
22	
21	
25	
24	
24	
24	
22	
21	
22	
22	
24	
26	
26	
29	
28	
26	
29	
19	
23	
22	
22	
23	
22	
28	
23	
18	
24	
22	
22	
20	
34	
26	
17	
16	
18	
25	
23	
11	
21	
23	
25	
26	
19	
31	
33	
23	
25	
26	
15	
34	
31	
20	
22	
28	
21	
10	
14	
22	
24	
25	
21	
25	
14	
20	
23	
25	
27	
11	
33	
24	
18	
25	
21	
24	
17	
25	
20	
9	
21	
26	
22	
15	
24	
28	
23	
25	
22	
18	
18	
23	
26	
21	
24	
21	
21	
25	
27	
22	
24	
21	
27	
21	
20	
19	
24	
24	
26	
30	
15	
18	
18	
25	
25	
32	
30	
32	
20	
29	
16	
23	
15	
20	
22	
28	
16	
24	
25	
28	
22	
29	
19	
26	
13	
23	
23	
19	
24	
16	
21	
24	
30	
22	
28	
28	
22	
19	
28	
25	
18	
26	
23	
23	
24	
30	
21	
19	
23	
26	
25	
33	
27	
22	
24	
23	
30	
20	
20	
26	
19	
29	
26	
17	
22	
16	
18	
22	
22	
26	
18	
21	
22	
22	
25	
17	
22	
21	
28	
29	
21	
27	
21	
25	
23	
20	
16	
19	
16	
14	
24	
21	
21	
15	
30	
23	
31	
17	
23	
26	
14	
23	
24	
24	
21	
22	
24	
15	
17	
25	
24	
25	
22	
15	
19	
21	
20	
20	
28	
27	
19	
21	
18	
15	
33	
26	
25	
18	
22	
32	
26	
17	
19	
30	
13	
23	
20	
21	
16	
22	
19	
19	
20	
25	
28	
25	
20	
34	
32	
23	
17	
18	
19	
21	
29	
22	
24	
24	
23	
22	
31	
24	
21	
29	
12	
22	
24	
24	
23	
12	
22	
19	
19	
25	
17	
30	
34	
23	
15	
16	
25	
25	
22	
18	
31	
22	
20	
24	
25	
24	
17	
22	
16	
24	
20	
20	
30	
20	
16	
23	
23	
14	
16	
17	
18	
23	
21	
17	
27	
23	
22	
22	
21	
21	
20	
27	
23	
18	
24	
16	
19	
20	
12	
30	
24	
14	
14	
26	
18	
20	
18	
21	
22	
22	
23	
19	
23	
23	
20	
17	
16	
22	
21	
20	
21	
14	
29	
29	
20	
23	
27	
29	
11	
22	
18	
19	
27	
20	
30	
5	
21	
15	
24	
26	
16	
20	
20	
25	
26	
19	
13	
17	
24	
17	
22	
21	
28	
17	
27	
18	
31	
22	
27	
20	
20	
24	
24	
27	
11	
21	
21	
31	
28	
21	
12	
23	
23	
17	
26	
22	
20	
20	
26	
17	
24	
10	
22	
18	
18	
12	
21	
17	
19	
25	
18	
22	
19	
25	
20	
20	
20	
18	
17	
21	
25	
18	
14	
19	
27	
30	
15	
23	
14	
17	
7	
18	
16	
19	
18	
21	
21	
21	
29	
18	
27	
18	
22	
20	
21	
27	
20	
23	
28	
19	
29	
29	
23	
20	
14	
23	
23	
24	
19	
17	
18	
25	
23	
21	
16	
22	
17	
23	
13	
25	
19	
26	
16	
31	
16	
23	
23	
24	
20	
29	
17	
20	
20	
17	
21	
22	
23	
20	
20	
23	
21	
33	
29	
17	
26	
18	
16	
19	
24	
21	
29	
23	
19	
25	
21	
15	
15	
21	
18	
23	
16	
26	
23	
28	
17	
23	
29	
17	
17	
20	
19	
19	
19	
26	
26	
22	
21	
26	
21	
18	
27	
19	
13	
29	
25	
18	
14	
18	
18	
15	
17	
14	
17	
19	
15	
17	
24	
20	
22	
13	
16	
17	
14	
21	
26	
35	
19	
19	
12	
19	
24	
28	
13	
26	
23	
21	
20	
25	
18	
20	
18	
24	
19	
26	
17	
16	
20	
12	
12	
20	
21	
17	
26	
14	
22	
19	
10	
30	
23	
14	
20	
23	
20	
21	
19	
19	
14	
19	
17	
17	
21	
17	
25	
15	
29	
18	
25	
18	
15	
28	
22	
23	
14	
26	
20	
20	
20	
19	
20	
23	
22	
20	
17	
14	
22	
25	
21	
16	
16	
25	
14	
17	
27	
16	
19	
13	
23	
23	
15	
17	
17	
13	
21	
20	
14	
26	
18	
14	
16	
9	
21	
22	
22	
28	
19	
20	
16	
24	
25	
22	
23	
20	
17	
10	
14	
21	
13	
30	
18	
16	
10	
21	
21	
16	
25	
15	
14	
26	
23	
16	
27	
20	
19	
18	
26	
19	
16	
12	
20	
20	
14	
17	
30	
20	
17	
25	
19	
19	
17	
23	
20	
18	
22	
23	
17	
24	
16	
27	
19	
14	
19	
22	
20	
19	
26	
17	
17	
28	
12	
15	
25	
16	
19	
19	
11	
15	
23	
16	
15	
14	
23	
20	
20	
8	
27	
22	
15	
28	
18	
20	
17	
20	
19	
24	
13	
13	
26	
18	
18	
22	
22	
13	
26	
19	
22	
14	
13	
19	
25	
14	
21	
19	
17	
17	
23	
24	
16	
19	
17	
18	
11	
20	
24	
17	
7	
14	
11	
13	
9	
23	
18	
14	
20	
20	
15	
14	
19	
14	
21	
14	
14	
17	
24	
14	
12	
16	
15	
30	
18	
27	
12	
14	
15	
19	
20	
16	
22	
19	
18	
22	
16	
17	
20	
14	
18	
16	
25	
21	
9	
22	
16	
12	
22	
12	
26	
19	
20	
17	
17	
22	
15	
19	
23	
14	
12	
19	
20	
22	
19	
12	
15	
23	
17	
20	
24	
19	
19	
14	
16	
31	
20	
19	
15	
19	
10	
9	
23	
19	
19	
20	
20	
24	
14	
17	
19	
17	
21	
16	
14	
20	
23	
14	
16	
16	
19	
15	
22	
14	
12	
11	
12	
21	
21	
19	
14	
22	
20	
16	
24	
14	
14	
21	
29	
14	
20	
16	
22	
19	
8	
17	
15	
25	
12	
17	
18	
23	
23	
17	
16	
23	
22	
19	
22	
19	
16	
20	
24	
15	
18	
16	
16	
20	
16	
15	
26	
14	
15	
19	
24	
21	
20	
12	
16	
13	
17	
22	
19	
10	
20	
15	
11	
16	
22	
15	
19	
18	
20	
10	
17	
15	
18	
14	
23	
22	
14	
16	
22	
16	
19	
14	
22	
19	
11	
14	
19	
19	
17	
22	
17	
14	
19	
22	
19	
17	
7	
11	
24	
8	
18	
17	
13	
22	
23	
22	
21	
14	
16	
12	
20	
13	
13	
17	
18	
13	
13	
15	
12	
16	
12	
17	
9	
19	
19	
11	
16	
10	
23	
20	
21	
27	
20	
21	
19	
15	
23	
18	
15	
18	
25	
19	
10	
21	
13	
27	
18	
17	
13	
23	
14	
20	
16	
11	
20	
12	
20	
26	
18	
15	
9	
11	
16	
20	
9	
7	
19	
15	
15	
29	
18	
15	
25	
17	
20	
15	
22	
16	
16	
22	
18	
15	
18	
18	
21	
19	
10	
16	
19	
14	
21	
18	
16	
13	
22	
10	
20	
14	
17	
12	
30	
13	
17	
19	
12	
14	
20	
23	
13	
18	
16	
15	
12	
16	
15	
11	
7	
14	
20	
17	
10	
23	
20	
17	
18	
12	
19	
17	
19	
22	
16	
16	
20	
15	
15	
9	
21	
23	
14	
22	
14	
16	
19	
12	
14	
17	
12	
14	
16	
20	
20	
22	
19	
12	
18	
10	
16	
9	
19	
16	
17	
18	
22	
20	
13	
15	
18	
19	
12	
14	
16	
18	
15	
18	
17	
28	
12	
9	
17	
13	
14	
16	
19	
17	
20	
11	
11	
16	
16	
13	
15	
16	
15	
21	
16	
17	
14	
15	
11	
24	
11	
16	
11	
16	
19	
12	
14	
11	
23	
19	
19	
12	
11	
15	
13	
11	
15	
20	
15	
11	
12	
21	
15	
17	
13	
19	
15	
19	
16	
23	
26	
21	
19	
14	
18	
17	
18	
18	
11	
26	
8	
12	
21	
25	
17	
16	
14	
12	
17	
13	
17	
24	
14	
22	
14	
16	
16	
15	
16	
11	
14	
21	
16	
10	
17	
11	
17	
11	
15	
13	
19	
20	
16	
17	
17	
15	
16	
20	
14	
12	
18	
17	
15	
17	
10	
18	
16	
17	
15	
24	
12	
10	
16	
14	
11	
14	
13	
20	
14	
9	
22	
18	
21	
18	
18	
25	
19	
13	
14	
22	
9	
15	
20	
21	
13	
17	
22	
12	
18	
12	
16	
17	
14	
14	
17	
16	
19	
16	
23	
16	
18	
21	
10	
19	
19	
13	
15	
9	
11	
21	
10	
27	
16	
22	
14	
14	
12	
11	
19	
14	
11	
20	
15	
15	
15	
25	
12	
17	
12	
14	
10	
11	
20	
28	
13	
10	
21	
20	
20	
19	
16	
6	
13	
21	
23	
9	
12	
12	
20	
18	
13	
14	
20	
20	
20	
12	
16	
14	
11	
15	
15	
18	
12	
13	
19	
13	
17	
16	
11	
12	
23	
8	
11	
19	
11	
19	
16	
7	
13	
13	
14	
12	
27	
17	
13	
14	
16	
8	
13	
24	
19	
17	
17	
13	
12	
9	
13	
18	
17	
16	
20	
14	
15	
18	
10	
16	
18	
20	
16	
27	
16	
12	
17	
14	
27	
9	
7	
16	
18	
11	
18	
16	
14	
13	
12	
13	
17	
20	
14	
15	
17	
9	
13	
17	
13	
12	
16	
17	
6	
18	
15	
15	
21	
19	
16	
16	
16	
13	
18	
13	
14	
14	
17	
18	
15	
14	
12	
17	
15	
8	
13	
15	
16	
17	
14	
13	
12	
15	
13	
23	
13	
18	
14	
19	
20	
8	
18	
12	
20	
19	
22	
18	
14	
22	
8	
15	
11	
14	
27	
20	
17	
12	
13	
13	
22	
16	
15	
14	
15	
20	
11	
12	
20	
14	
17	
14	
14	
19	
19	
16	
16	
10	
14	
10	
16	
11	
13	
14	
12	
16	
14	
14	
19	
17	
14	
13	
24	
24	
12	
15	
21	
23	
16	
13	
16	
14	
16	
17	
10	
16	
15	
16	
14	
12	
14	
10	
17	
17	
14	
12	
9	
15	
13	
15	
8	
11	
11	
14	
19	
12	
15	
17	
12	
20	
12	
13	
23	
10	
20	
8	
12	
12	
18	
17	
12	
17	
16	
15	
12	
12	
11	
13	
19	
14	
16	
13	
19	
14	
13	
14	
13	
12	
13	
16	
17	
13	
15	
14	
15	
15	
13	
17	
23	
12	
10	
8	
12	
18	
16	
13	
10	
16	
14	
15	
19	
19	
13	
12	
13	
20	
12	
19	
18	
11	
15	
18	
14	
12	
10	
11	
10	
12	
14	
17	
14	
10	
18	
15	
10	
15	
11	
12	
12	
19	
20	
22	
11	
16	
21	
9	
14	
16	
14	
18	
19	
13	
10	
20	
15	
13	
13	
14	
14	
14	
6	
8	
15	
23	
8	
15	
23	
15	
14	
21	
11	
13	
13	
12	
12	
13	
16	
12	
13	
15	
13	
14	
13	
15	
23	
12	
9	
14	
12	
16	
12	
11	
8	
13	
14	
12	
13	
19	
14	
12	
13	
18	
15	
11	
18	
14	
18	
22	
16	
14	
24	
16	
17	
14	
13	
14	
10	
10	
12	
15	
19	
15	
16	
16	
12	
8	
23	
16	
8	
14	
16	
5	
17	
11	
15	
11	
15	
13	
9	
15	
8	
9	
17	
10	
9	
17	
12	
15	
14	
16	
15	
18	
12	
16	
11	
10	
10	
12	
12	
17	
14	
16	
13	
17	
18	
13	
17	
8	
18	
13	
9	
17	
9	
20	
17	
20	
11	
25	
14	
13	
12	
15	
11	
13	
12	
9	
11	
7	
16	
19	
10	
20	
13	
11	
18	
18	
19	
19	
18	
22	
12	
9	
15	
13	
17	
12	
12	
15	
10	
17	
13	
9	
10	
14	
11	
13	
17	
13	
20	
18	
13	
9	
10	
14	
8	
9	
17	
9	
14	
15	
19	
15	
14	
12	
14	
9	
14	
16	
18	
17	
14	
14	
14	
12	
11	
13	
15	
12	
6	
10	
14	
15	
16	
15	
14	
14	
7	
11	
21	
10	
11	
9	
13	
14	
14	
6	
13	
10	
17	
15	
16	
13	
11	
19	
20	
17	
23	
17	
13	
12	
6	
16	
15	
13	
17	
11	
13	
12	
18	
10	
12	
18	
10	
18	
16	
16	
14	
13	
17	
14	
17	
11	
11	
12	
15	
11	
13	
9	
15	
18	
13	
12	
11	
22	
21	
16	
15	
14	
9	
12	
11	
18	
14	
11	
13	
13	
11	
11	
16	
15	
12	
17	
10	
17	
14	
20	
13	
12	
13	
16	
9	
9	
12	
10	
7	
11	
15	
13	
19	
18	
14	
15	
18	
11	
9	
10	
11	
14	
12	
12	
11	
12	
21	
14	
12	
6	
11	
13	
7	
14	
12	
17	
17	
11	
9	
23	
12	
16	
9	
20	
8	
13	
13	
18	
10	
13	
14	
15	
8	
17	
16	
9	
15	
15	
14	
15	
9	
14	
12	
13	
16	
14	
10	
17	
12	
9	
18	
17	
15	
15	
13	
15	
16	
17	
15	
13	
13	
9	
12	
13	
13	
20	
7	
11	
17	
17	
13	
12	
14	
13	
9	
9	
14	
15	
15	
10	
10	
13	
22	
12	
12	
11	
17	
14	
22	
8	
15	
16	
9	
16	
15	
15	
9	
10	
13	
10	
18	
12	
17	
13	
12	
14	
16	
14	
15	
11	
13	
14	
14	
6	
16	
10	
12	
20	
18	
12	
13	
11	
16	
11	
7	
16	
11	
10	
4	
15	
17	
13	
10	
17	
10	
19	
11	
9	
15	
12	
12	
15	
12	
15	
13	
14	
4	
11	
12	
9	
13	
11	
12	
12	
17	
8	
14	
14	
9	
17	
14	
10	
9	
9	
11	
8	
9	
8	
17	
17	
14	
9	
9	
5	
13	
14	
12	
15	
18	
17	
16	
16	
8	
10	
13	
10	
12	
17	
9	
11	
12	
17	
10	
8	
6	
12	
9	
16	
9	
13	
11	
18	
10	
12	
9	
10	
11	
11	
15	
14	
11	
15	
13	
17	
17	
13	
11	
13	
17	
9	
12	
11	
11	
12	
8	
14	
11	
11	
10	
9	
14	
6	
14	
13	
11	
13	
7	
17	
18	
9	
11	
14	
8	
15	
12	
17	
9	
12	
14	
7	
11	
10	
16	
11	
16	
8	
11	
17	
11	
10	
13	
14	
12	
12	
13	
12	
12	
8	
10	
18	
20	
15	
17	
9	
16	
9	
15	
12	
12	
10	
13	
20	
6	
9	
10	
13	
10	
20	
9	
8	
9	
7	
13	
11	
11	
12	
19	
12	
13	
14	
9	
11	
11	
8	
14	
18	
12	
9	
10	
11	
11	
5	
14	
9	
15	
9	
7	
11	
12	
16	
10	
10	
13	
9	
6	
14	
13	
9	
10	
7	
10	
9	
8	
12	
14	
8	
13	
4	
18	
14	
15	
5	
14	
11	
12	
11	
12	
8	
9	
13	
17	
11	
21	
8	
18	
18	
14	
5	
17	
11	
20	
13	
7	
6	
13	
12	
10	
14	
13	
10	
6	
7	
10	
7	
10	
16	
13	
16	
16	
9	
11	
13	
12	
10	
12	
12	
12	
11	
11	
13	
14	
17	
16	
6	
5	
13	
12	
11	
17	
13	
8	
14	
10	
14	
10	
15	
9	
12	
13	
19	
14	
13	
17	
14	
7	
18	
17	
11	
12	
16	
15	
14	
15	
16	
10	
5	
16	
12	
7	
13	
10	
12	
16	
9	
14	
12	
12	
14	
12	
8	
11	
9	
14	
12	
15	
7	
13	
15	
11	
20	
15	
18	
15	
11	
9	
19	
12	
21	
13	
8	
16	
16	
12	
14	
15	
12	
9	
11	
12	
13	
7	
10	
10	
11	
12	
12	
13	
9	
11	
17	
14	
13	
8	
10	
11	
12	
7	
9	
11	
16	
8	
11	
13	
10	
14	
16	
10	
14	
11	
13	
7	
9	
12	
15	
12	
11	
8	
10	
17	
10	
12	
8	
9	
14	
13	
10	
8	
12	
8	
10	
15	
15	
11	
16	
16	
11	
7	
15	
17	
6	
11	
15	
13	
19	
13	
10	
12	
10	
14	
11	
8	
10	
8	
8	
11	
6	
19	
8	
8	
9	
12	
12	
15	
9	
11	
16	
13	
13	
14	
12	
12	
12	
11	
11	
6	
11	
14	
3	
7	
12	
14	
13	
6	
12	
16	
13	
16	
13	
12	
7	
5	
14	
12	
16	
15	
12	
7	
9	
8	
9	
13	
8	
14	
13	
14	
15	
12	
14	
8	
10	
12	
10	
12	
13	
11	
7	
9	
14	
11	
12	
13	
12	
3	
13	
8	
16	
8	
9	
5	
17	
11	
11	
10	
12	
7	
11	
12	
15	
9	
10	
11	
8	
13	
11	
8	
13	
12	
17	
18	
13	
7	
9	
12	
18	
9	
11	
12	
7	
8	
14	
8	
8	
13	
9	
14	
17	
11	
15	
3	
6	
15	
8	
10	
8	
14	
16	
13	
8	
13	
8	
11	
12	
9	
8	
13	
14	
9	
11	
9	
12	
14	
9	
11	
12	
14	
11	
13	
15	
16	
10	
12	
7	
8	
12	
12	
11	
12	
13	
22	
4	
5	
11	
17	
9	
7	
11	
12	
11	
5	
22	
13	
13	
9	
10	
6	
9	
23	
9	
5	
17	
14	
10	
6	
15	
16	
20	
13	
9	
14	
15	
10	
10	
5	
4	
12	
10	
8	
13	
6	
10	
11	
11	
11	
14	
9	
8	
12	
10	
15	
7	
6	
12	
15	
9	
14	
8	
11	
6	
10	
15	
10	
16	
13	
11	
10	
6	
10	
11	
12	
11	
11	
9	
17	
9	
15	
14	
15	
8	
15	
7	
7	
7	
7	
11	
13	
13	
11	
5	
11	
9	
10	
14	
7	
12	
13	
11	
9	
8	
10	
11	
12	
14	
14	
9	
12	
10	
9	
8	
7	
11	
11	
12	
6	
4	
9	
6	
11	
13	
17	
16	
12	
7	
6	
8	
4	
14	
6	
13	
12	
13	
10	
10	
9	
6	
11	
15	
16	
5	
6	
8	
10	
5	
16	
9	
7	
16	
8	
15	
11	
12	
21	
11	
8	
11	
14	
10	
5	
8	
8	
9	
8	
15	
19	
12	
9	
11	
8	
11	
8	
8	
11	
14	
9	
10	
5	
12	
13	
9	
17	
6	
14	
14	
9	
7	
14	
4	
7	
10	
11	
9	
6	
10	
7	
13	
10	
14	
10	
5	
10	
10	
11	
9	
6	
7	
11	
6	
14	
9	
16	
10	
5	
13	
12	
11	
11	
11	
15	
13	
11	
8	
5	
9	
11	
14	
11	
10	
4	
5	
8	
11	
6	
5	
10	
4	
11	
5	
9	
13	
13	
10	
7	
13	
15	
9	
12	
7	
8	
12	
12	
10	
11	
11	
5	
9	
10	
6	
12	
12	
6	
12	
12	
11	
8	
13	
12	
9	
12	
7	
11	
14	
9	
14	
10	
3	
12	
21	
12	
9	
9	
11	
6	
10	
11	
7	
11	
11	
9	
9	
13	
6	
11	
10	
9	
10	
8	
6	
8	
15	
12	
7	
14	
6	
3	
9	
9	
11	
8	
12	
4	
14	
12	
13	
10	
8	
3	
11	
13	
12	
8	
8	
10	
10	
4	
12	
11	
6	
10	
11	
15	
5	
12	
15	
9	
10	
14	
4	
9	
10	
6	
12	
8	
5	
9	
10	
7	
7	
10	
8	
14	
11	
11	
13	
13	
13	
12	
13	
11	
3	
11	
12	
8	
5	
12	
14	
6	
10	
8	
11	
7	
10	
12	
9	
3	
9	
12	
18	
12	
14	
12	
10	
11	
8	
13	
4	
10	
10	
4	
11	
14	
5	
6	
7	
13	
7	
12	
12	
6	
6	
8	
8	
15	
13	
16	
13	
8	
16	
12	
9	
13	
11	
6	
5	
13	
10	
13	
7	
8	
5	
8	
8	
9	
12	
17	
3	
13	
3	
10	
11	
12	
9	
5	
12	
14	
21	
7	
8	
7	
7	
10	
13	
6	
9	
9	
6	
10	
12	
9	
5	
15	
6	
9	
9	
9	
8	
6	
13	
6	
11	
9	
7	
8	
10	
10	
15	
11	
10	
9	
12	
4	
10	
4	
10	
15	
8	
17	
7	
6	
12	
7	
9	
12	
15	
8	
9	
13	
8	
7	
11	
11	
7	
5	
7	
12	
7	
3	
10	
7	
13	
6	
7	
9	
9	
9	
8	
7	
6	
10	
12	
8	
4	
12	
14	
11	
11	
7	
6	
7	
5	
13	
11	
10	
10	
14	
9	
6	
5	
9	
14	
13	
8	
9	
8	
13	
9	
7	
6	
8	
9	
9	
8	
6	
11	
5	
8	
9	
11	
7	
5	
4	
10	
13	
8	
10	
9	
8	
8	
8	
9	
6	
2	
10	
9	
16	
6	
11	
6	
8	
8	
6	
18	
12	
4	
9	
6	
11	
12	
8	
10	
15	
7	
8	
8	
7	
10	
7	
9	
10	
16	
12	
7	
10	
8	
9	
16	
9	
13	
10	
6	
10	
6	
8	
10	
12	
11	
10	
8	
10	
6	
7	
7	
11	
7	
16	
13	
9	
8	
13	
14	
8	
9	
11	
8	
5	
9	
13	
11	
11	
6	
7	
10	
5	
10	
6	
11	
10	
10	
11	
11	
9	
4	
14	
5	
11	
5	
9	
8	
7	
7	
10	
11	
8	
8	
9	
7	
7	
7	
11	
11	
9	
5	
13	
12	
10	
8	
10	
7	
5	
10	
9	
14	
9	
15	
13	
9	
10	
6	
7	
8	
6	
6	
6	
4	
5	
5	
7	
8	
10	
8	
10	
14	
11	
12	
11	
10	
5	
21	
5	
10	
8	
7	
11	
10	
8	
10	
9	
12	
5	
4	
5	
10	
12	
8	
10	
7	
12	
12	
12	
3	
3	
11	
7	
15	
7	
11	
12	
11	
13	
8	
10	
12	
12	
7	
7	
19	
10	
9	
13	
8	
10	
7	
6	
8	
8	
8	
7	
7	
7	
8	
4	
10	
12	
9	
8	
11	
9	
6	
10	
12	
11	
5	
10	
12	
9	
9	
12	
6	
7	
12	
8	
6	
13	
15	
8	
11	
4	
10	
13	
6	
6	
9	
15	
14	
6	
10	
12	
6	
7	
9	
11	
8	
11	
14	
9	
6	
5	
4	
9	
15	
11	
8	
5	
8	
7	
10	
8	
4	
7	
9	
7	
10	
10	
10	
7	
11	
9	
5	
13	
7	
11	
13	
9	
16	
18	
11	
13	
5	
5	
13	
6	
6	
7	
4	
5	
6	
9	
17	
5	
5	
8	
5	
8	
11	
6	
7	
6	
10	
4	
6	
4	
5	
10	
12	
9	
7	
7	
6	
10	
5	
10	
9	
9	
13	
11	
11	
11	
13	
8	
14	
10	
8	
4	
5	
6	
12	
10	
9	
7	
12	
4	
12	
10	
6	
7	
9	
4	
8	
8	
7	
6	
9	
6	
2	
10	
11	
13	
11	
7	
6	
11	
6	
12	
11	
10	
11	
7	
7	
6	
7	
5	
7	
17	
14	
9	
7	
10	
11	
4	
12	
11	
6	
8	
9	
11	
8	
7	
7	
5	
9	
7	
5	
3	
8	
10	
9	
9	
3	
7	
10	
9	
8	
9	
5	
7	
8	
10	
5	
9	
6	
8	
9	
9	
7	
15	
10	
4	
10	
9	
9	
8	
8	
9	
6	
6	
7	
12	
7	
11	
7	
2	
4	
8	
10	
5	
12	
14	
12	
8	
11	
9	
14	
10	
9	
10	
8	
10	
8	
9	
4	
4	
7	
8	
8	
7	
7	
10	
9	
7	
11	
6	
9	
9	
7	
10	
6	
8	
7	
9	
7	
8	
11	
11	
10	
7	
9	
8	
13	
7	
16	
8	
5	
11	
12	
13	
6	
12	
10	
10	
7	
11	
5	
8	
13	
8	
7	
12	
10	
9	
12	
17	
8	
8	
8	
12	
9	
6	
12	
5	
8	
13	
8	
8	
8	
7	
5	
8	
5	
7	
7	
12	
6	
14	
15	
12	
9	
2	
6	
8	
6	
7	
7	
4	
6	
10	
5	
10	
11	
10	
11	
7	
8	
3	
7	
7	
5	
5	
12	
10	
13	
11	
9	
7	
9	
9	
4	
6	
10	
9	
13	
5	
7	
7	
7	
9	
7	
11	
10	
10	
6	
8	
12	
3	
8	
9	
11	
9	
3	
10	
10	
9	
6	
8	
9	
7	
8	
10	
8	
9	
8	
6	
12	
11	
15	
11	
6	
11	
10	
11	
10	
7	
6	
6	
5	
8	
9	
3	
6	
6	
11	
8	
11	
9	
8	
6	
8	
7	
8	
13	
9	
9	
3	
7	
8	
11	
7	
7	
6	
10	
10	
13	
7	
4	
5	
3	
7	
13	
10	
8	
14	
4	
9	
12	
12	
5	
8	
9	
11	
6	
8	
12	
7	
5	
8	
8	
15	
12	
10	
12	
8	
10	
11	
4	
5	
8	
8	
7	
5	
4	
14	
12	
8	
4	
7	
9	
5	
4	
7	
15	
8	
9	
6	
6	
5	
5	
6	
8	
7	
5	
4	
6	
6	
7	
4	
8	
11	
3	
7	
13	
7	
3	
10	
11	
10	
5	
6	
10	
9	
10	
15	
9	
6	
11	
7	
8	
5	
6	
11	
7	
12	
7	
10	
0	
8	
4	
5	
4	
6	
8	
13	
5	
10	
10	
11	
9	
8	
11	
5	
4	
3	
7	
7	
5	
7	
11	
17	
10	
12	
11	
5	
6	
7	
4	
4	
10	
10	
17	
6	
6	
6	
8	
6	
4	
12	
4	
5	
6	
11	
6	
9	
9	
7	
10	
7	
7	
8	
9	
7	
4	
6	
5	
7	
8	
7	
9	
12	
4	
5	
8	
8	
9	
12	
8	
8	
9	
2	
9	
7	
4	
5	
8	
11	
8	
8	
9	
3	
7	
4	
4	
11	
4	
5	
6	
11	
11	
8	
10	
5	
10	
9	
7	
10	
5	
4	
9	
7	
9	
9	
8	
7	
10	
13	
3	
8	
9	
8	
5	
4	
8	
7	
11	
7	
7	
9	
7	
6	
9	
3	
4	
10	
9	
4	
4	
6	
9	
5	
5	
3	
7	
7	
8	
6	
8	
8	
8	
12	
8	
6	
9	
4	
8	
8	
15	
12	
6	
11	
11	
7	
6	
8	
8	
11	
13	
9	
9	
