#PicoHarp 300  Histogram Data			05/24/2022 05:54:59 PM
#channels per curve
31250
#display curve no.
0	
#memory block no.
0	
#ns/channel
0.0320	
#counts
4	
5	
2	
6	
7	
6	
2	
3	
2	
8	
7	
3	
3	
1	
8	
1	
2	
9	
3	
2	
5	
8	
1	
5	
6	
5	
4	
2	
2	
8	
7	
3	
7	
12	
8	
4	
4	
6	
5	
3	
4	
4	
4	
2	
2	
7	
5	
1	
6	
10	
5	
2	
4	
8	
2	
6	
2	
5	
4	
4	
4	
9	
5	
8	
8	
5	
3	
0	
7	
7	
6	
2	
5	
3	
7	
9	
4	
3	
3	
6	
10	
6	
0	
8	
4	
6	
6	
4	
3	
2	
4	
2	
5	
3	
3	
3	
4	
4	
2	
5	
6	
7	
5	
4	
8	
1	
3	
7	
5	
2	
4	
5	
7	
4	
2	
3	
3	
3	
3	
4	
4	
3	
6	
5	
6	
5	
5	
2	
5	
6	
5	
6	
2	
6	
4	
3	
4	
4	
3	
3	
3	
5	
2	
3	
4	
5	
4	
4	
2	
3	
1	
2	
4	
8	
4	
5	
4	
7	
10	
2	
1	
3	
1	
3	
3	
2	
3	
6	
4	
7	
2	
2	
3	
8	
8	
4	
3	
5	
4	
1	
0	
5	
6	
5	
9	
8	
4	
4	
2	
2	
3	
4	
1	
5	
1	
4	
8	
0	
6	
3	
3	
5	
2	
6	
5	
4	
4	
3	
2	
3	
2	
3	
3	
1	
2	
2	
7	
2	
10	
7	
5	
6	
4	
4	
6	
6	
1	
6	
6	
7	
3	
7	
3	
13	
7	
2	
4	
3	
4	
3	
3	
3	
4	
5	
1	
4	
4	
1	
3	
11	
3	
3	
3	
2	
5	
2	
6	
3	
4	
4	
10	
4	
5	
5	
3	
2	
5	
1	
5	
4	
4	
6	
2	
5	
5	
6	
5	
6	
6	
5	
8	
4	
2	
6	
2	
7	
4	
6	
5	
5	
5	
4	
2	
2	
4	
5	
4	
3	
4	
1	
6	
3	
5	
2	
3	
10	
1	
4	
3	
4	
7	
5	
4	
5	
8	
5	
6	
5	
1	
4	
7	
3	
9	
3	
6	
4	
5	
4	
6	
4	
5	
5	
8	
5	
5	
3	
3	
4	
6	
4	
5	
4	
7	
5	
8	
4	
4	
5	
3	
5	
6	
5	
2	
9	
6	
5	
7	
3	
3	
7	
4	
5	
5	
5	
6	
7	
4	
3	
5	
4	
2	
4	
4	
6	
1	
3	
5	
6	
7	
2	
5	
3	
7	
2	
1	
6	
1	
5	
4	
3	
8	
7	
3	
4	
3	
2	
5	
5	
4	
6	
4	
6	
4	
2	
3	
5	
6	
4	
5	
6	
5	
4	
3	
5	
4	
9	
5	
5	
7	
12	
6	
2	
3	
4	
4	
7	
4	
4	
8	
5	
6	
8	
3	
2	
3	
7	
4	
6	
7	
6	
3	
2	
3	
7	
4	
4	
3	
2	
5	
5	
3	
2	
5	
6	
3	
4	
3	
5	
3	
2	
5	
5	
4	
6	
5	
1	
5	
6	
7	
8	
4	
6	
3	
4	
5	
3	
7	
3	
5	
5	
5	
5	
10	
2	
2	
4	
2	
4	
4	
2	
8	
5	
4	
2	
4	
6	
4	
5	
4	
0	
1	
4	
4	
1	
7	
3	
8	
7	
8	
8	
5	
6	
5	
6	
11	
3	
2	
5	
3	
2	
5	
8	
6	
3	
3	
4	
3	
5	
3	
1	
8	
2	
2	
9	
4	
2	
5	
9	
7	
5	
7	
4	
14	
7	
6	
5	
5	
5	
3	
7	
4	
2	
5	
7	
3	
5	
4	
6	
3	
3	
5	
4	
3	
4	
3	
8	
4	
6	
3	
5	
4	
6	
4	
4	
6	
5	
5	
5	
4	
6	
4	
5	
5	
4	
2	
4	
2	
6	
4	
5	
2	
6	
5	
5	
1	
7	
7	
6	
9	
5	
4	
5	
2	
7	
10	
3	
4	
9	
4	
7	
6	
1	
2	
3	
5	
5	
2	
5	
6	
4	
5	
5	
2	
5	
8	
2	
2	
5	
5	
2	
1	
2	
2	
3	
5	
3	
8	
5	
6	
9	
3	
5	
5	
2	
2	
6	
6	
2	
5	
6	
3	
5	
6	
4	
7	
6	
4	
4	
3	
7	
3	
1	
4	
3	
3	
5	
5	
7	
5	
7	
6	
6	
8	
9	
3	
4	
7	
3	
3	
5	
3	
3	
5	
3	
2	
5	
5	
5	
4	
9	
3	
7	
7	
6	
3	
4	
6	
7	
4	
2	
3	
7	
5	
4	
1	
7	
5	
9	
3	
4	
2	
6	
1	
4	
7	
5	
1	
2	
2	
0	
7	
5	
4	
8	
5	
6	
3	
2	
3	
3	
5	
3	
8	
2	
1	
6	
6	
7	
7	
6	
1	
5	
6	
5	
9	
1	
2	
5	
7	
5	
2	
6	
9	
6	
3	
9	
2	
2	
3	
8	
2	
4	
3	
3	
4	
7	
5	
6	
4	
8	
6	
1	
2	
7	
6	
4	
6	
5	
3	
7	
0	
7	
9	
4	
0	
5	
1	
2	
7	
3	
7	
3	
4	
5	
7	
8	
2	
5	
4	
6	
0	
4	
8	
2	
4	
4	
5	
1	
4	
3	
3	
8	
5	
3	
7	
2	
7	
2	
1	
2	
4	
3	
2	
3	
8	
6	
7	
7	
5	
3	
4	
5	
7	
1	
4	
8	
6	
3	
7	
9	
5	
7	
4	
1	
4	
6	
7	
2	
5	
2	
2	
4	
2	
6	
4	
2	
5	
4	
1	
0	
5	
6	
7	
7	
0	
5	
2	
3	
3	
3	
3	
6	
1	
2	
7	
4	
13	
1	
2	
8	
4	
2	
4	
5	
6	
8	
3	
4	
4	
3	
4	
5	
4	
6	
6	
5	
8	
5	
4	
5	
5	
3	
3	
6	
6	
4	
2	
6	
8	
3	
4	
4	
7	
5	
1	
3	
3	
1	
5	
6	
6	
4	
9	
5	
5	
4	
3	
6	
7	
4	
6	
5	
6	
3	
4	
3	
6	
6	
6	
4	
4	
10	
5	
12	
4	
4	
3	
4	
9	
5	
3	
4	
6	
3	
0	
1	
4	
7	
3	
4	
4	
8	
8	
10	
14	
8	
11	
14	
17	
20	
14	
23	
21	
20	
23	
30	
42	
45	
56	
81	
80	
87	
78	
120	
121	
135	
173	
196	
258	
241	
280	
333	
385	
408	
442	
492	
515	
557	
564	
604	
612	
658	
712	
736	
725	
733	
843	
799	
820	
826	
864	
870	
896	
1000	
957	
922	
929	
941	
951	
938	
978	
974	
955	
950	
977	
938	
959	
956	
922	
937	
989	
962	
949	
906	
892	
869	
947	
954	
933	
960	
931	
902	
955	
929	
838	
933	
911	
916	
885	
945	
889	
931	
885	
925	
934	
892	
922	
862	
932	
897	
933	
928	
887	
924	
894	
955	
912	
917	
899	
943	
885	
909	
874	
887	
879	
848	
899	
859	
923	
924	
842	
905	
810	
852	
880	
851	
869	
895	
845	
802	
817	
854	
907	
874	
870	
870	
827	
849	
890	
844	
831	
811	
885	
796	
851	
862	
842	
787	
902	
786	
878	
846	
880	
825	
814	
810	
808	
821	
806	
854	
777	
865	
825	
850	
795	
855	
814	
840	
803	
777	
840	
814	
824	
797	
810	
821	
852	
766	
794	
832	
820	
799	
800	
742	
818	
775	
764	
806	
771	
722	
762	
756	
808	
795	
707	
753	
749	
824	
808	
733	
731	
764	
766	
830	
734	
766	
792	
779	
790	
795	
762	
784	
764	
810	
783	
724	
813	
710	
788	
749	
748	
763	
741	
770	
686	
787	
774	
758	
772	
716	
730	
717	
732	
769	
762	
710	
716	
746	
718	
721	
714	
731	
699	
776	
787	
763	
750	
725	
744	
737	
720	
755	
749	
720	
731	
734	
732	
763	
754	
701	
704	
747	
755	
737	
728	
708	
743	
773	
701	
738	
698	
641	
746	
717	
752	
742	
711	
682	
735	
688	
724	
677	
718	
767	
719	
710	
714	
698	
681	
691	
662	
664	
715	
668	
676	
666	
691	
690	
634	
709	
742	
696	
712	
726	
667	
740	
710	
652	
689	
674	
723	
633	
671	
721	
700	
668	
665	
670	
759	
732	
682	
721	
701	
687	
690	
672	
661	
635	
650	
685	
661	
670	
649	
670	
639	
693	
650	
635	
665	
655	
634	
692	
683	
686	
676	
702	
737	
656	
676	
715	
655	
661	
710	
651	
662	
672	
683	
657	
649	
670	
656	
677	
642	
664	
643	
610	
644	
627	
682	
631	
673	
639	
686	
635	
658	
665	
704	
645	
651	
673	
633	
623	
645	
641	
650	
654	
696	
642	
640	
666	
673	
649	
656	
602	
607	
671	
620	
625	
656	
647	
632	
665	
652	
647	
654	
616	
615	
650	
627	
666	
663	
626	
629	
604	
637	
626	
634	
620	
623	
629	
626	
638	
635	
620	
627	
638	
683	
623	
611	
633	
608	
626	
610	
643	
581	
581	
670	
613	
631	
633	
627	
651	
613	
614	
639	
607	
602	
603	
585	
617	
632	
598	
603	
624	
625	
624	
628	
619	
597	
620	
600	
595	
654	
602	
601	
536	
597	
617	
612	
618	
620	
605	
607	
559	
601	
632	
600	
577	
623	
577	
594	
557	
638	
627	
620	
644	
580	
565	
584	
555	
622	
587	
579	
620	
601	
628	
565	
576	
585	
608	
576	
659	
604	
540	
609	
587	
557	
596	
584	
568	
572	
568	
570	
596	
518	
617	
612	
608	
599	
557	
590	
572	
574	
554	
569	
578	
567	
616	
581	
585	
577	
595	
590	
552	
545	
572	
582	
551	
547	
548	
569	
599	
582	
590	
587	
527	
549	
593	
587	
555	
567	
544	
568	
599	
590	
544	
581	
580	
559	
530	
589	
555	
591	
600	
555	
528	
514	
536	
551	
593	
557	
535	
575	
540	
539	
559	
566	
556	
565	
579	
562	
518	
558	
515	
546	
569	
580	
519	
487	
503	
517	
559	
524	
561	
572	
565	
577	
519	
561	
561	
522	
542	
532	
566	
555	
608	
532	
538	
564	
544	
549	
535	
585	
507	
568	
510	
537	
547	
549	
528	
523	
572	
568	
551	
507	
559	
538	
579	
539	
535	
480	
538	
524	
504	
549	
516	
513	
521	
521	
506	
546	
562	
528	
567	
562	
515	
528	
550	
522	
527	
519	
509	
520	
572	
527	
508	
528	
504	
512	
538	
528	
498	
533	
508	
497	
523	
547	
504	
550	
519	
536	
537	
543	
522	
533	
513	
521	
524	
520	
489	
495	
505	
536	
528	
522	
520	
525	
483	
475	
528	
507	
516	
563	
508	
502	
516	
518	
524	
550	
525	
489	
512	
493	
504	
488	
532	
497	
513	
480	
514	
543	
480	
496	
509	
516	
484	
493	
503	
495	
510	
505	
520	
509	
465	
478	
500	
551	
504	
493	
504	
522	
503	
519	
490	
503	
534	
470	
491	
506	
520	
502	
498	
542	
495	
506	
499	
488	
489	
474	
516	
494	
517	
516	
495	
511	
525	
485	
471	
496	
507	
526	
471	
506	
487	
523	
494	
477	
503	
513	
465	
483	
475	
508	
522	
484	
497	
467	
448	
467	
474	
512	
512	
493	
472	
493	
503	
502	
486	
495	
498	
503	
471	
537	
511	
474	
443	
533	
494	
477	
484	
483	
494	
541	
489	
479	
508	
472	
508	
483	
494	
485	
510	
443	
493	
474	
521	
485	
491	
481	
458	
485	
451	
457	
480	
474	
513	
451	
488	
458	
461	
516	
462	
490	
483	
451	
470	
483	
443	
504	
481	
460	
487	
479	
454	
476	
460	
463	
468	
487	
496	
436	
482	
461	
500	
474	
467	
483	
466	
428	
471	
485	
467	
445	
478	
506	
467	
461	
454	
448	
451	
465	
479	
491	
458	
491	
451	
479	
486	
438	
447	
465	
420	
475	
503	
472	
426	
505	
435	
480	
463	
439	
487	
467	
473	
476	
448	
469	
472	
442	
454	
488	
419	
437	
418	
479	
485	
448	
447	
458	
461	
467	
479	
478	
424	
459	
482	
442	
450	
467	
435	
442	
519	
459	
466	
475	
484	
490	
467	
459	
424	
450	
428	
422	
443	
419	
435	
465	
438	
447	
438	
441	
426	
435	
448	
454	
437	
471	
456	
479	
455	
413	
429	
444	
462	
434	
419	
434	
458	
445	
444	
409	
437	
447	
481	
397	
421	
451	
431	
427	
408	
477	
417	
463	
453	
430	
437	
444	
409	
467	
450	
426	
474	
427	
427	
455	
437	
433	
446	
436	
462	
441	
456	
453	
402	
449	
408	
419	
419	
450	
439	
423	
499	
442	
473	
488	
433	
435	
417	
420	
438	
446	
425	
467	
429	
441	
433	
418	
424	
424	
441	
459	
427	
432	
415	
435	
390	
425	
394	
423	
443	
411	
495	
453	
435	
397	
436	
455	
430	
421	
417	
415	
430	
438	
461	
437	
422	
439	
431	
419	
419	
413	
454	
424	
427	
397	
389	
431	
426	
427	
451	
408	
435	
432	
418	
411	
462	
413	
423	
400	
429	
403	
425	
419	
432	
437	
413	
420	
454	
415	
425	
417	
403	
448	
452	
413	
428	
435	
404	
440	
415	
427	
420	
415	
373	
426	
408	
435	
413	
443	
412	
413	
391	
435	
386	
414	
411	
377	
421	
403	
408	
386	
388	
406	
447	
415	
447	
416	
407	
411	
416	
433	
468	
407	
395	
386	
404	
423	
407	
383	
440	
400	
403	
405	
393	
398	
434	
426	
376	
408	
403	
411	
415	
404	
378	
390	
388	
418	
446	
405	
368	
398	
402	
378	
385	
430	
372	
368	
411	
402	
404	
417	
394	
386	
428	
369	
425	
451	
402	
385	
423	
406	
390	
373	
339	
387	
372	
380	
362	
420	
404	
374	
403	
387	
431	
404	
425	
382	
395	
403	
393	
411	
375	
388	
370	
390	
424	
408	
380	
415	
369	
393	
417	
357	
415	
372	
383	
388	
395	
388	
365	
396	
415	
397	
372	
395	
420	
392	
380	
384	
440	
398	
384	
407	
382	
397	
386	
379	
386	
390	
388	
390	
410	
346	
379	
405	
383	
382	
376	
397	
364	
372	
353	
391	
379	
401	
372	
392	
407	
361	
390	
405	
353	
377	
352	
389	
377	
355	
381	
366	
363	
383	
396	
406	
365	
404	
394	
388	
383	
366	
405	
380	
380	
377	
390	
405	
411	
357	
391	
381	
391	
377	
365	
384	
393	
379	
352	
376	
389	
374	
388	
411	
377	
350	
374	
411	
389	
389	
367	
394	
379	
364	
356	
425	
382	
375	
374	
384	
397	
374	
367	
385	
380	
345	
381	
371	
379	
394	
389	
390	
379	
370	
347	
345	
393	
396	
388	
330	
373	
394	
334	
377	
342	
391	
386	
345	
357	
369	
358	
376	
349	
361	
342	
338	
360	
373	
394	
385	
394	
353	
367	
380	
382	
348	
373	
368	
371	
379	
367	
361	
372	
410	
360	
364	
365	
346	
356	
360	
365	
355	
398	
330	
375	
358	
332	
362	
374	
369	
353	
364	
399	
326	
337	
403	
359	
353	
367	
337	
331	
362	
350	
344	
358	
376	
370	
355	
354	
364	
338	
349	
333	
352	
351	
368	
359	
360	
326	
347	
355	
318	
362	
356	
339	
358	
343	
372	
330	
344	
351	
345	
354	
334	
333	
335	
373	
370	
331	
345	
370	
333	
352	
322	
363	
323	
376	
364	
310	
340	
328	
341	
354	
353	
386	
324	
355	
401	
342	
351	
391	
334	
347	
313	
327	
365	
355	
373	
355	
347	
319	
348	
351	
343	
350	
376	
341	
308	
324	
334	
346	
354	
332	
387	
333	
321	
328	
313	
366	
370	
332	
352	
316	
348	
343	
342	
363	
377	
330	
323	
355	
368	
348	
365	
332	
312	
355	
340	
334	
328	
327	
327	
368	
289	
334	
380	
320	
315	
322	
332	
332	
364	
340	
327	
373	
338	
316	
322	
353	
344	
326	
322	
344	
350	
363	
340	
291	
352	
357	
339	
365	
343	
364	
339	
320	
326	
365	
333	
339	
325	
326	
333	
332	
329	
314	
300	
321	
363	
350	
330	
334	
332	
309	
351	
331	
343	
314	
337	
321	
323	
317	
308	
348	
323	
329	
316	
338	
328	
331	
332	
304	
339	
324	
311	
321	
348	
333	
339	
334	
354	
355	
349	
348	
330	
320	
327	
321	
314	
327	
294	
327	
300	
336	
332	
338	
360	
305	
340	
329	
323	
336	
336	
332	
322	
303	
351	
298	
307	
348	
317	
350	
313	
325	
326	
308	
308	
306	
306	
343	
346	
310	
325	
318	
308	
367	
314	
333	
331	
325	
337	
325	
321	
313	
322	
330	
342	
342	
333	
354	
319	
321	
318	
281	
315	
303	
316	
315	
324	
329	
338	
312	
342	
339	
318	
283	
323	
324	
320	
315	
317	
308	
338	
301	
318	
329	
305	
313	
313	
331	
270	
315	
335	
324	
326	
306	
325	
331	
338	
322	
333	
263	
298	
281	
324	
313	
350	
331	
290	
344	
272	
335	
296	
333	
300	
307	
313	
329	
309	
314	
353	
341	
327	
338	
301	
321	
341	
307	
344	
298	
312	
332	
289	
329	
295	
263	
299	
354	
318	
302	
338	
297	
297	
307	
317	
288	
357	
314	
302	
327	
347	
320	
295	
317	
326	
304	
314	
283	
308	
331	
328	
305	
305	
320	
325	
295	
278	
311	
327	
327	
309	
317	
291	
293	
316	
337	
309	
301	
285	
321	
308	
302	
309	
293	
320	
320	
298	
292	
314	
305	
302	
310	
314	
336	
326	
280	
294	
328	
288	
297	
348	
285	
300	
303	
308	
314	
324	
286	
286	
299	
278	
264	
306	
299	
278	
269	
295	
326	
284	
272	
274	
282	
331	
295	
327	
300	
321	
297	
284	
316	
308	
270	
280	
285	
313	
269	
288	
291	
294	
288	
292	
303	
280	
311	
279	
278	
290	
281	
328	
277	
286	
316	
296	
298	
300	
302	
280	
284	
291	
297	
299	
292	
303	
308	
314	
300	
288	
284	
290	
286	
291	
291	
304	
289	
256	
297	
292	
289	
319	
298	
287	
287	
260	
307	
319	
310	
303	
273	
280	
300	
316	
289	
305	
299	
291	
303	
301	
277	
288	
283	
282	
283	
309	
275	
294	
264	
305	
313	
282	
313	
281	
258	
280	
303	
282	
280	
285	
294	
294	
299	
264	
276	
269	
316	
283	
298	
300	
289	
298	
272	
285	
303	
261	
309	
252	
286	
270	
260	
269	
279	
267	
296	
293	
287	
291	
299	
261	
268	
334	
294	
286	
297	
272	
288	
272	
276	
275	
292	
289	
250	
279	
310	
276	
303	
280	
291	
275	
274	
315	
279	
251	
315	
311	
279	
281	
274	
281	
267	
270	
288	
295	
288	
284	
278	
251	
291	
261	
270	
277	
266	
279	
278	
294	
258	
283	
303	
274	
257	
298	
275	
265	
263	
273	
261	
273	
267	
262	
279	
281	
279	
297	
290	
285	
296	
285	
263	
272	
289	
276	
273	
310	
249	
267	
255	
265	
273	
262	
285	
286	
245	
288	
261	
291	
272	
281	
256	
260	
290	
266	
282	
265	
298	
280	
292	
296	
274	
286	
297	
250	
300	
280	
290	
296	
278	
268	
243	
274	
273	
304	
289	
258	
272	
260	
274	
279	
277	
260	
285	
277	
264	
243	
285	
270	
279	
260	
261	
284	
243	
249	
227	
262	
272	
288	
286	
298	
253	
282	
265	
269	
266	
264	
281	
250	
253	
256	
260	
273	
318	
295	
255	
266	
280	
234	
266	
268	
272	
289	
270	
256	
260	
295	
242	
264	
265	
243	
210	
270	
282	
262	
270	
263	
261	
247	
270	
252	
258	
301	
276	
255	
264	
258	
255	
286	
273	
287	
274	
240	
297	
273	
276	
219	
240	
262	
260	
242	
262	
285	
249	
302	
266	
252	
236	
288	
264	
286	
241	
257	
245	
282	
255	
231	
239	
229	
268	
266	
253	
273	
263	
259	
255	
232	
265	
261	
239	
252	
278	
268	
253	
218	
255	
244	
244	
254	
245	
269	
258	
264	
271	
248	
238	
242	
241	
252	
264	
259	
275	
238	
254	
246	
242	
242	
270	
257	
228	
261	
266	
247	
287	
251	
257	
250	
245	
257	
261	
267	
250	
238	
271	
262	
263	
300	
255	
297	
260	
262	
256	
226	
233	
261	
271	
229	
290	
266	
254	
262	
231	
255	
243	
248	
265	
250	
258	
229	
247	
253	
248	
246	
264	
255	
248	
248	
258	
257	
259	
242	
286	
250	
220	
248	
254	
255	
217	
254	
259	
279	
261	
270	
250	
238	
236	
267	
250	
236	
252	
238	
240	
255	
249	
219	
250	
237	
251	
246	
231	
246	
232	
264	
242	
247	
233	
236	
226	
274	
253	
273	
263	
263	
225	
266	
242	
252	
244	
251	
243	
257	
261	
256	
263	
233	
265	
253	
244	
257	
247	
256	
228	
258	
267	
221	
244	
215	
237	
245	
264	
238	
223	
261	
245	
243	
245	
255	
251	
233	
254	
246	
248	
236	
269	
251	
225	
236	
223	
262	
221	
241	
235	
249	
249	
246	
236	
259	
227	
248	
241	
261	
241	
247	
245	
243	
251	
196	
240	
221	
249	
258	
234	
216	
199	
244	
249	
215	
250	
229	
257	
235	
263	
250	
223	
225	
226	
240	
257	
235	
218	
225	
247	
268	
257	
228	
232	
216	
224	
238	
255	
259	
222	
254	
271	
243	
210	
215	
254	
242	
225	
224	
247	
249	
212	
247	
244	
237	
233	
231	
223	
244	
221	
238	
241	
252	
253	
249	
233	
229	
220	
237	
218	
234	
218	
228	
249	
244	
209	
214	
224	
223	
204	
239	
230	
244	
229	
244	
229	
228	
258	
222	
231	
216	
233	
248	
217	
245	
242	
258	
210	
235	
236	
220	
227	
232	
207	
220	
229	
236	
233	
235	
209	
229	
238	
227	
220	
223	
246	
236	
229	
227	
231	
237	
242	
218	
229	
215	
217	
228	
256	
235	
236	
198	
236	
238	
203	
244	
232	
239	
211	
247	
223	
225	
235	
240	
231	
217	
245	
254	
199	
240	
229	
188	
224	
221	
249	
250	
186	
200	
222	
248	
220	
237	
209	
243	
198	
226	
258	
253	
235	
240	
223	
224	
243	
244	
219	
226	
218	
214	
236	
213	
217	
219	
233	
227	
217	
226	
227	
234	
235	
216	
220	
222	
248	
233	
208	
241	
228	
211	
222	
233	
213	
232	
205	
195	
250	
229	
223	
213	
237	
223	
230	
218	
204	
218	
245	
215	
206	
244	
218	
216	
247	
230	
201	
217	
227	
261	
226	
228	
243	
213	
210	
216	
238	
239	
207	
232	
213	
207	
195	
217	
222	
231	
207	
193	
228	
245	
208	
236	
228	
215	
250	
191	
239	
232	
221	
219	
211	
199	
247	
219	
229	
202	
227	
207	
219	
215	
228	
199	
227	
217	
211	
250	
217	
202	
230	
219	
237	
220	
216	
229	
212	
214	
224	
182	
217	
206	
208	
224	
212	
208	
201	
224	
230	
243	
183	
199	
211	
237	
230	
210	
195	
257	
193	
188	
229	
231	
234	
221	
225	
213	
258	
219	
223	
219	
215	
209	
216	
185	
208	
230	
204	
175	
194	
210	
220	
202	
237	
208	
212	
224	
199	
233	
204	
225	
191	
198	
204	
214	
199	
185	
231	
200	
216	
211	
203	
218	
203	
205	
216	
218	
218	
218	
210	
214	
204	
229	
188	
201	
204	
217	
235	
202	
193	
202	
206	
208	
218	
207	
205	
187	
213	
228	
197	
195	
221	
179	
227	
212	
210	
213	
184	
224	
212	
205	
224	
184	
215	
222	
213	
208	
210	
223	
202	
214	
205	
230	
188	
222	
211	
222	
238	
187	
214	
198	
204	
209	
212	
211	
210	
231	
188	
232	
205	
213	
208	
193	
210	
204	
181	
198	
188	
188	
247	
178	
219	
173	
198	
192	
216	
208	
197	
205	
206	
203	
197	
197	
214	
187	
165	
208	
202	
209	
220	
205	
182	
241	
205	
187	
185	
219	
201	
247	
209	
207	
218	
244	
191	
208	
222	
182	
186	
199	
209	
231	
227	
211	
208	
207	
194	
219	
198	
213	
193	
210	
228	
206	
185	
186	
201	
210	
198	
206	
211	
194	
200	
214	
198	
181	
206	
186	
190	
194	
226	
188	
190	
186	
171	
170	
192	
221	
197	
208	
192	
217	
203	
214	
209	
198	
192	
194	
193	
207	
200	
187	
228	
211	
199	
183	
200	
208	
191	
224	
200	
176	
187	
174	
207	
173	
166	
199	
174	
197	
180	
227	
198	
192	
194	
208	
179	
206	
211	
208	
232	
180	
188	
201	
199	
202	
214	
203	
192	
190	
189	
199	
213	
206	
198	
224	
202	
186	
180	
193	
199	
191	
188	
215	
201	
199	
210	
197	
189	
215	
198	
187	
195	
208	
235	
188	
196	
204	
197	
170	
197	
189	
199	
201	
175	
198	
225	
188	
182	
203	
195	
209	
188	
205	
179	
182	
187	
176	
177	
189	
192	
187	
214	
204	
200	
194	
206	
164	
179	
215	
201	
166	
205	
191	
181	
192	
195	
193	
186	
186	
180	
187	
190	
191	
187	
202	
183	
201	
181	
183	
189	
204	
185	
182	
168	
216	
176	
197	
189	
187	
192	
198	
193	
183	
176	
179	
205	
202	
199	
178	
183	
177	
191	
194	
194	
199	
174	
197	
182	
209	
192	
177	
205	
217	
175	
190	
190	
182	
199	
185	
153	
183	
182	
179	
169	
195	
197	
176	
208	
166	
195	
183	
196	
198	
194	
178	
196	
176	
194	
170	
205	
164	
218	
209	
179	
187	
200	
194	
203	
224	
187	
194	
202	
194	
198	
201	
209	
192	
190	
166	
185	
189	
210	
185	
170	
183	
197	
209	
196	
160	
188	
200	
211	
159	
177	
166	
185	
163	
188	
162	
176	
175	
175	
177	
210	
192	
172	
201	
187	
176	
208	
197	
200	
195	
168	
153	
205	
197	
169	
175	
207	
193	
174	
183	
188	
188	
194	
205	
183	
192	
189	
165	
203	
178	
202	
178	
214	
187	
183	
175	
187	
185	
161	
197	
182	
160	
172	
197	
183	
170	
212	
171	
163	
204	
156	
180	
202	
187	
173	
171	
177	
170	
204	
182	
185	
162	
163	
180	
191	
170	
181	
168	
178	
163	
166	
169	
174	
175	
196	
190	
176	
168	
163	
175	
185	
178	
180	
200	
158	
182	
196	
193	
175	
196	
173	
184	
170	
178	
207	
191	
176	
178	
185	
151	
201	
177	
172	
183	
197	
192	
193	
211	
185	
180	
179	
194	
191	
157	
174	
181	
184	
168	
164	
185	
183	
182	
177	
199	
162	
165	
175	
186	
195	
176	
155	
172	
190	
179	
171	
183	
175	
160	
185	
162	
184	
170	
190	
179	
197	
202	
184	
163	
181	
164	
200	
163	
170	
173	
176	
156	
173	
168	
152	
171	
168	
198	
159	
192	
162	
180	
172	
176	
175	
173	
165	
168	
173	
182	
162	
174	
187	
197	
172	
180	
157	
178	
167	
182	
175	
180	
195	
167	
158	
167	
196	
170	
188	
167	
159	
138	
166	
163	
162	
157	
192	
162	
181	
161	
164	
170	
155	
172	
166	
169	
180	
178	
187	
160	
171	
187	
175	
178	
179	
142	
189	
182	
167	
183	
170	
171	
179	
172	
172	
174	
160	
170	
167	
162	
160	
158	
177	
149	
172	
139	
161	
189	
157	
161	
153	
169	
187	
156	
166	
152	
185	
178	
159	
177	
161	
171	
188	
189	
165	
193	
187	
179	
186	
167	
191	
186	
164	
154	
169	
159	
168	
167	
185	
168	
157	
161	
162	
163	
194	
157	
178	
130	
161	
157	
184	
171	
166	
190	
191	
173	
164	
162	
167	
160	
151	
161	
176	
167	
158	
164	
155	
182	
180	
162	
159	
177	
152	
162	
137	
162	
166	
170	
169	
164	
166	
160	
163	
174	
162	
176	
159	
174	
182	
156	
165	
171	
167	
169	
170	
169	
157	
166	
167	
165	
170	
161	
164	
173	
183	
170	
166	
174	
146	
181	
171	
180	
165	
189	
162	
156	
146	
171	
153	
171	
171	
150	
169	
172	
171	
179	
173	
170	
162	
165	
157	
153	
172	
142	
146	
161	
153	
153	
169	
161	
180	
174	
153	
154	
170	
158	
174	
146	
151	
179	
134	
178	
153	
169	
147	
167	
174	
157	
160	
178	
160	
181	
153	
167	
177	
161	
179	
163	
159	
160	
160	
155	
134	
167	
149	
182	
181	
176	
153	
153	
157	
169	
165	
162	
155	
189	
144	
155	
133	
145	
161	
192	
172	
139	
175	
152	
171	
140	
140	
140	
170	
186	
165	
173	
164	
164	
170	
163	
169	
149	
142	
160	
165	
151	
158	
152	
164	
167	
156	
158	
170	
157	
178	
168	
169	
131	
180	
161	
151	
154	
175	
168	
162	
176	
159	
171	
153	
151	
165	
154	
152	
170	
158	
162	
135	
155	
176	
155	
184	
180	
170	
161	
138	
152	
137	
162	
172	
140	
149	
174	
163	
170	
159	
154	
180	
135	
148	
157	
137	
171	
141	
164	
177	
177	
154	
145	
168	
163	
168	
168	
160	
172	
172	
172	
164	
187	
164	
148	
176	
162	
159	
164	
164	
131	
173	
156	
157	
170	
147	
152	
139	
142	
153	
158	
155	
163	
140	
165	
169	
161	
178	
160	
152	
126	
169	
146	
169	
151	
168	
162	
151	
123	
150	
153	
153	
143	
143	
147	
141	
132	
139	
165	
157	
152	
145	
166	
155	
146	
166	
149	
166	
138	
140	
162	
144	
136	
168	
140	
144	
136	
161	
145	
134	
171	
150	
136	
154	
143	
161	
165	
141	
135	
168	
145	
147	
135	
152	
164	
144	
165	
157	
165	
157	
156	
162	
158	
133	
151	
189	
153	
129	
138	
164	
168	
158	
153	
174	
144	
137	
155	
148	
143	
161	
135	
151	
132	
158	
164	
151	
164	
177	
161	
177	
150	
141	
145	
165	
152	
140	
128	
150	
166	
152	
132	
155	
154	
148	
145	
151	
151	
126	
139	
163	
146	
138	
154	
151	
174	
165	
135	
129	
138	
164	
154	
133	
145	
128	
153	
155	
167	
164	
158	
158	
147	
167	
147	
154	
165	
148	
128	
154	
138	
154	
138	
152	
143	
155	
145	
154	
161	
128	
125	
160	
165	
157	
140	
151	
163	
152	
146	
159	
142	
146	
159	
157	
169	
133	
143	
130	
142	
156	
159	
165	
148	
172	
149	
146	
152	
162	
169	
154	
165	
164	
132	
140	
162	
160	
156	
130	
141	
145	
151	
164	
155	
152	
142	
138	
132	
135	
122	
158	
143	
142	
149	
132	
141	
154	
126	
139	
142	
146	
141	
142	
134	
160	
137	
155	
125	
154	
159	
135	
148	
152	
127	
150	
133	
127	
155	
147	
142	
149	
153	
147	
133	
156	
162	
138	
170	
139	
134	
134	
129	
153	
167	
143	
150	
145	
147	
144	
147	
126	
165	
153	
152	
151	
138	
142	
146	
148	
150	
135	
139	
141	
148	
148	
151	
129	
152	
115	
146	
158	
171	
161	
169	
136	
120	
148	
154	
121	
121	
162	
161	
173	
149	
139	
145	
149	
133	
136	
148	
139	
135	
121	
148	
139	
147	
133	
141	
137	
149	
167	
167	
153	
142	
138	
151	
138	
142	
138	
145	
137	
143	
135	
136	
130	
134	
144	
149	
160	
153	
130	
148	
146	
147	
168	
135	
146	
142	
123	
138	
129	
146	
131	
147	
144	
125	
153	
146	
130	
122	
137	
129	
139	
134	
153	
149	
152	
154	
147	
140	
133	
154	
143	
135	
144	
147	
134	
128	
154	
150	
140	
123	
122	
153	
152	
136	
128	
142	
126	
130	
137	
143	
129	
146	
135	
126	
146	
149	
125	
153	
148	
160	
139	
118	
150	
125	
143	
142	
127	
128	
133	
139	
151	
147	
142	
126	
144	
136	
141	
139	
140	
155	
134	
134	
133	
133	
139	
126	
135	
148	
144	
140	
135	
132	
146	
136	
117	
124	
132	
159	
170	
131	
133	
146	
134	
124	
146	
104	
139	
129	
153	
139	
145	
107	
155	
119	
138	
134	
125	
157	
117	
134	
137	
144	
106	
145	
134	
142	
114	
133	
148	
119	
128	
150	
142	
150	
134	
143	
139	
133	
111	
137	
127	
141	
127	
130	
146	
124	
140	
125	
138	
145	
124	
141	
128	
139	
132	
127	
128	
135	
133	
136	
137	
122	
115	
128	
133	
142	
126	
131	
150	
144	
138	
119	
130	
118	
153	
116	
152	
135	
124	
133	
121	
126	
128	
124	
118	
134	
116	
134	
132	
116	
120	
124	
137	
112	
141	
134	
143	
141	
132	
136	
132	
131	
121	
135	
131	
144	
140	
156	
130	
141	
123	
127	
133	
139	
152	
143	
124	
134	
145	
147	
131	
134	
141	
142	
111	
122	
151	
122	
146	
120	
127	
132	
116	
151	
134	
148	
139	
141	
141	
149	
101	
156	
136	
122	
137	
107	
135	
149	
147	
142	
127	
141	
119	
119	
103	
137	
148	
127	
138	
116	
109	
116	
140	
137	
121	
125	
137	
130	
138	
142	
125	
130	
119	
128	
121	
128	
120	
142	
124	
125	
130	
126	
129	
135	
140	
150	
117	
122	
108	
125	
153	
129	
128	
138	
131	
119	
131	
126	
145	
133	
128	
127	
122	
122	
125	
123	
131	
142	
142	
119	
117	
114	
104	
123	
126	
122	
131	
123	
128	
142	
123	
145	
118	
140	
130	
141	
114	
121	
137	
124	
152	
122	
121	
128	
123	
129	
133	
106	
124	
137	
133	
128	
151	
131	
129	
127	
140	
99	
147	
103	
121	
135	
104	
142	
123	
138	
126	
129	
119	
120	
127	
126	
123	
127	
152	
139	
145	
128	
99	
131	
126	
133	
131	
117	
137	
135	
109	
125	
123	
129	
130	
113	
113	
115	
141	
117	
136	
132	
144	
132	
108	
124	
117	
125	
124	
132	
142	
130	
135	
140	
140	
118	
106	
124	
139	
150	
127	
127	
126	
119	
137	
118	
133	
131	
138	
108	
144	
128	
120	
120	
110	
138	
118	
118	
115	
118	
129	
111	
110	
117	
111	
113	
104	
128	
128	
122	
113	
117	
130	
95	
131	
122	
130	
129	
120	
134	
115	
121	
120	
160	
123	
118	
121	
132	
135	
120	
133	
117	
110	
131	
106	
113	
144	
131	
108	
115	
135	
125	
141	
136	
106	
122	
139	
137	
122	
138	
127	
115	
140	
127	
118	
125	
125	
119	
113	
114	
116	
147	
126	
112	
92	
114	
119	
120	
113	
116	
111	
123	
133	
108	
128	
127	
131	
113	
100	
115	
127	
132	
108	
130	
122	
123	
124	
126	
121	
107	
139	
127	
131	
108	
149	
129	
108	
114	
121	
123	
109	
88	
104	
127	
126	
113	
121	
124	
117	
117	
124	
122	
131	
118	
116	
113	
127	
117	
128	
120	
103	
122	
129	
122	
108	
131	
101	
108	
115	
122	
114	
117	
119	
123	
127	
136	
105	
130	
130	
125	
121	
138	
107	
125	
132	
123	
114	
97	
118	
118	
101	
128	
122	
121	
112	
109	
118	
132	
117	
107	
116	
118	
121	
122	
103	
131	
130	
123	
102	
128	
128	
111	
100	
130	
104	
112	
117	
128	
123	
113	
122	
104	
135	
128	
118	
127	
122	
103	
133	
135	
123	
102	
118	
103	
116	
116	
121	
113	
98	
129	
99	
109	
115	
110	
120	
107	
121	
114	
111	
116	
95	
112	
116	
124	
129	
113	
115	
132	
134	
111	
98	
107	
119	
119	
129	
110	
112	
117	
126	
122	
117	
135	
128	
101	
114	
115	
135	
110	
107	
114	
107	
106	
139	
128	
113	
113	
123	
108	
104	
120	
108	
126	
124	
103	
128	
117	
114	
115	
114	
102	
118	
118	
130	
113	
137	
125	
136	
110	
95	
121	
125	
108	
112	
122	
100	
115	
103	
116	
122	
108	
106	
121	
131	
111	
129	
101	
120	
129	
128	
118	
114	
122	
134	
114	
113	
119	
104	
124	
103	
133	
117	
123	
121	
100	
118	
112	
103	
103	
102	
138	
127	
130	
96	
107	
120	
116	
125	
112	
115	
121	
92	
109	
125	
125	
120	
93	
128	
113	
126	
107	
130	
118	
122	
105	
111	
116	
109	
112	
108	
111	
126	
120	
108	
103	
119	
111	
113	
95	
120	
98	
131	
117	
123	
114	
108	
125	
126	
123	
121	
118	
113	
109	
121	
123	
114	
109	
114	
106	
113	
109	
103	
88	
133	
117	
107	
123	
113	
108	
104	
97	
103	
135	
127	
106	
126	
111	
109	
115	
104	
109	
100	
136	
101	
124	
110	
137	
116	
114	
125	
134	
117	
110	
118	
110	
123	
117	
106	
106	
121	
95	
109	
98	
102	
110	
111	
89	
91	
116	
131	
119	
111	
112	
133	
102	
95	
103	
112	
104	
99	
117	
99	
104	
108	
115	
109	
108	
115	
108	
119	
101	
98	
116	
119	
103	
111	
121	
117	
111	
102	
111	
125	
101	
112	
98	
111	
118	
91	
124	
111	
124	
107	
102	
102	
109	
107	
117	
115	
114	
112	
113	
107	
122	
113	
107	
110	
120	
103	
109	
111	
113	
109	
121	
121	
124	
128	
99	
115	
113	
97	
121	
112	
125	
106	
120	
114	
116	
99	
99	
93	
111	
105	
109	
119	
130	
97	
116	
103	
122	
121	
99	
94	
106	
110	
99	
115	
120	
122	
108	
123	
100	
106	
92	
114	
120	
112	
109	
108	
106	
112	
106	
118	
101	
116	
99	
110	
111	
113	
99	
87	
120	
108	
119	
103	
100	
92	
90	
107	
105	
110	
103	
114	
114	
122	
105	
114	
115	
108	
101	
115	
92	
102	
114	
122	
100	
110	
91	
118	
91	
108	
116	
126	
91	
123	
98	
99	
109	
119	
115	
109	
117	
95	
109	
120	
99	
100	
108	
105	
106	
103	
86	
92	
103	
91	
118	
96	
93	
94	
104	
105	
110	
118	
113	
120	
100	
110	
123	
110	
98	
111	
99	
102	
95	
99	
106	
105	
101	
99	
103	
84	
97	
97	
113	
112	
114	
97	
106	
96	
108	
106	
115	
100	
105	
104	
111	
93	
106	
93	
103	
99	
111	
114	
99	
102	
118	
119	
104	
99	
107	
84	
102	
108	
108	
113	
87	
105	
101	
104	
97	
83	
117	
102	
116	
101	
104	
108	
98	
96	
109	
102	
94	
102	
112	
105	
104	
114	
102	
108	
97	
115	
119	
106	
106	
117	
116	
104	
110	
112	
80	
118	
99	
104	
110	
103	
98	
100	
104	
117	
113	
95	
103	
92	
103	
108	
104	
107	
91	
112	
105	
93	
108	
96	
94	
99	
110	
109	
87	
102	
99	
98	
108	
119	
103	
105	
119	
98	
104	
114	
98	
111	
104	
79	
90	
77	
101	
88	
108	
121	
108	
102	
109	
95	
93	
102	
98	
102	
98	
112	
90	
91	
87	
112	
119	
107	
121	
101	
94	
127	
91	
112	
93	
110	
105	
96	
105	
102	
94	
112	
113	
105	
106	
98	
106	
94	
96	
115	
106	
97	
100	
98	
117	
81	
108	
97	
103	
111	
96	
110	
94	
118	
94	
107	
103	
109	
102	
107	
94	
111	
103	
108	
116	
89	
103	
91	
100	
82	
102	
88	
104	
95	
114	
114	
90	
90	
88	
95	
96	
107	
104	
106	
118	
110	
101	
103	
105	
82	
95	
90	
105	
94	
99	
93	
99	
114	
102	
98	
101	
95	
79	
86	
109	
94	
115	
95	
118	
117	
89	
99	
111	
104	
87	
113	
101	
81	
100	
100	
115	
110	
113	
89	
99	
84	
104	
94	
79	
99	
102	
83	
88	
77	
92	
107	
93	
102	
95	
84	
88	
109	
102	
82	
111	
123	
104	
97	
99	
99	
96	
102	
99	
104	
98	
99	
107	
116	
99	
93	
87	
92	
93	
81	
74	
110	
98	
83	
116	
101	
99	
102	
116	
112	
98	
87	
97	
97	
106	
100	
83	
104	
72	
90	
100	
105	
96	
99	
110	
106	
95	
73	
110	
109	
94	
93	
84	
96	
88	
99	
79	
91	
81	
91	
98	
98	
89	
109	
118	
104	
100	
101	
97	
90	
99	
95	
111	
86	
92	
86	
102	
96	
106	
105	
107	
84	
76	
94	
90	
90	
113	
117	
88	
103	
88	
97	
91	
93	
102	
90	
94	
71	
106	
103	
104	
99	
90	
88	
103	
92	
87	
87	
92	
102	
92	
95	
101	
94	
87	
109	
85	
99	
89	
97	
96	
102	
84	
95	
91	
97	
92	
97	
90	
90	
66	
90	
89	
99	
89	
98	
95	
81	
94	
88	
92	
100	
80	
100	
85	
90	
86	
103	
110	
102	
85	
102	
94	
103	
94	
104	
91	
90	
107	
106	
121	
81	
96	
93	
92	
106	
90	
117	
88	
98	
95	
93	
79	
98	
90	
94	
77	
97	
89	
99	
78	
87	
90	
102	
87	
80	
95	
79	
85	
88	
92	
79	
108	
90	
81	
84	
90	
109	
115	
81	
83	
91	
104	
117	
96	
97	
87	
92	
87	
73	
83	
89	
86	
80	
95	
77	
74	
87	
85	
96	
94	
95	
