#PicoHarp 300  Histogram Data			05/24/2022 05:27:53 PM
#channels per curve
15625
#display curve no.
0	
#memory block no.
0	
#ns/channel
0.0320	
#counts
5	
5	
6	
2	
6	
4	
2	
6	
3	
8	
3	
9	
4	
4	
10	
3	
3	
2	
4	
6	
5	
5	
5	
2	
6	
5	
7	
7	
6	
7	
3	
3	
5	
5	
9	
4	
3	
3	
8	
3	
4	
7	
4	
4	
3	
4	
3	
2	
0	
2	
6	
5	
5	
4	
4	
2	
2	
1	
5	
1	
5	
6	
5	
6	
6	
3	
2	
4	
6	
6	
3	
2	
2	
5	
1	
4	
7	
3	
5	
5	
3	
4	
6	
0	
3	
4	
5	
6	
1	
6	
5	
8	
4	
0	
5	
5	
2	
4	
5	
2	
2	
3	
4	
6	
10	
8	
2	
5	
3	
5	
4	
5	
3	
5	
1	
7	
4	
7	
7	
2	
4	
2	
6	
6	
6	
2	
2	
5	
5	
3	
7	
5	
3	
6	
5	
4	
5	
3	
6	
4	
7	
4	
7	
4	
2	
4	
5	
6	
3	
6	
7	
5	
3	
4	
3	
2	
5	
7	
3	
4	
4	
5	
3	
4	
2	
4	
5	
1	
4	
4	
2	
6	
7	
2	
4	
7	
6	
7	
5	
7	
4	
6	
5	
5	
9	
4	
2	
5	
5	
1	
3	
2	
7	
2	
0	
3	
5	
4	
2	
3	
3	
2	
6	
3	
4	
2	
7	
3	
3	
2	
1	
5	
6	
2	
4	
3	
3	
2	
2	
4	
4	
2	
8	
1	
6	
6	
5	
10	
3	
6	
3	
6	
1	
4	
3	
3	
3	
4	
4	
8	
3	
6	
7	
2	
4	
5	
6	
6	
7	
8	
5	
2	
6	
1	
3	
6	
6	
5	
4	
4	
4	
3	
4	
7	
7	
4	
3	
1	
3	
10	
3	
5	
4	
4	
2	
4	
3	
4	
2	
5	
3	
3	
2	
5	
5	
3	
3	
3	
3	
3	
4	
6	
2	
9	
10	
2	
8	
3	
1	
6	
5	
4	
6	
4	
3	
7	
2	
4	
3	
3	
3	
3	
2	
3	
4	
2	
2	
5	
2	
3	
7	
4	
5	
5	
4	
7	
5	
5	
6	
6	
6	
2	
6	
6	
6	
6	
5	
7	
4	
3	
4	
5	
6	
6	
3	
4	
6	
7	
4	
3	
2	
5	
5	
5	
2	
3	
10	
4	
5	
3	
5	
2	
3	
0	
3	
5	
9	
3	
2	
3	
6	
3	
2	
5	
3	
3	
6	
3	
3	
3	
7	
6	
5	
4	
6	
5	
2	
6	
2	
8	
7	
4	
1	
3	
7	
4	
4	
3	
3	
5	
5	
3	
6	
8	
3	
1	
10	
6	
4	
7	
7	
3	
4	
4	
1	
3	
4	
3	
10	
4	
3	
3	
6	
5	
7	
2	
4	
9	
5	
1	
6	
4	
7	
4	
6	
4	
3	
3	
9	
0	
4	
3	
9	
4	
3	
4	
2	
6	
7	
2	
5	
1	
8	
10	
2	
3	
2	
3	
2	
5	
1	
5	
3	
8	
6	
4	
5	
6	
4	
1	
4	
2	
4	
4	
3	
5	
5	
5	
2	
6	
2	
4	
3	
3	
4	
3	
4	
6	
3	
6	
8	
2	
5	
2	
2	
10	
1	
5	
3	
6	
5	
7	
3	
2	
1	
9	
4	
2	
10	
3	
3	
6	
4	
1	
5	
5	
1	
2	
4	
4	
3	
4	
2	
4	
1	
1	
6	
2	
3	
3	
3	
6	
3	
6	
6	
8	
2	
8	
6	
0	
1	
4	
6	
5	
5	
6	
5	
4	
3	
3	
6	
6	
4	
10	
8	
8	
3	
3	
2	
5	
7	
7	
5	
4	
3	
4	
2	
7	
7	
3	
3	
5	
5	
6	
5	
3	
4	
7	
1	
8	
7	
7	
1	
3	
2	
1	
3	
2	
0	
7	
3	
3	
0	
3	
3	
5	
3	
5	
6	
5	
1	
0	
7	
4	
9	
3	
4	
1	
6	
2	
3	
3	
4	
5	
3	
7	
9	
6	
8	
4	
7	
2	
1	
3	
5	
2	
5	
2	
7	
2	
4	
3	
2	
3	
5	
3	
9	
7	
6	
2	
3	
1	
4	
2	
4	
5	
2	
4	
3	
4	
4	
4	
3	
3	
1	
7	
4	
3	
4	
5	
4	
8	
2	
5	
3	
4	
3	
6	
3	
3	
4	
4	
4	
3	
0	
1	
1	
4	
6	
5	
5	
2	
3	
4	
6	
2	
4	
9	
4	
6	
11	
2	
4	
6	
4	
8	
3	
6	
2	
4	
4	
7	
6	
4	
5	
4	
2	
2	
2	
5	
2	
8	
5	
4	
3	
4	
4	
4	
5	
5	
3	
8	
6	
9	
5	
4	
6	
5	
1	
5	
6	
3	
6	
1	
3	
5	
3	
7	
0	
4	
2	
10	
6	
1	
2	
2	
2	
6	
4	
8	
5	
2	
5	
6	
6	
7	
2	
5	
6	
2	
4	
3	
2	
6	
1	
10	
5	
5	
4	
8	
7	
3	
4	
3	
5	
0	
7	
4	
0	
2	
3	
5	
7	
6	
4	
4	
4	
3	
3	
4	
1	
5	
4	
7	
2	
7	
5	
4	
4	
1	
4	
3	
1	
4	
3	
4	
2	
7	
2	
2	
1	
7	
3	
4	
2	
5	
2	
3	
4	
2	
8	
5	
6	
5	
5	
3	
6	
5	
1	
0	
5	
3	
5	
4	
3	
3	
2	
1	
3	
4	
4	
4	
5	
11	
3	
5	
1	
5	
3	
6	
6	
4	
4	
11	
9	
2	
2	
7	
1	
5	
3	
4	
7	
4	
2	
2	
6	
6	
5	
7	
7	
6	
3	
2	
2	
4	
3	
5	
2	
5	
4	
5	
4	
4	
4	
5	
5	
5	
3	
5	
2	
3	
4	
4	
3	
3	
4	
1	
2	
5	
3	
3	
4	
5	
5	
2	
4	
5	
2	
6	
2	
4	
2	
6	
5	
5	
6	
2	
1	
4	
3	
3	
4	
3	
5	
3	
1	
3	
7	
1	
3	
3	
4	
4	
5	
5	
5	
10	
7	
3	
7	
3	
5	
5	
4	
6	
5	
2	
1	
4	
6	
6	
3	
5	
9	
3	
3	
5	
4	
5	
2	
1	
5	
5	
5	
4	
1	
4	
5	
10	
1	
2	
4	
4	
4	
10	
6	
10	
2	
9	
13	
23	
23	
38	
52	
86	
122	
171	
188	
247	
299	
361	
394	
470	
497	
559	
592	
653	
699	
725	
779	
796	
872	
826	
861	
913	
915	
1000	
906	
927	
933	
946	
977	
983	
952	
958	
931	
894	
890	
961	
955	
923	
932	
919	
939	
958	
947	
910	
930	
906	
889	
908	
901	
879	
918	
902	
902	
893	
899	
855	
873	
864	
869	
810	
857	
901	
805	
847	
843	
862	
803	
794	
813	
838	
842	
791	
808	
787	
786	
782	
794	
750	
790	
740	
779	
794	
802	
753	
724	
782	
781	
715	
759	
792	
737	
744	
774	
769	
738	
724	
749	
797	
732	
764	
711	
655	
727	
680	
702	
699	
762	
754	
722	
707	
713	
707	
682	
709	
753	
698	
682	
674	
694	
674	
705	
718	
710	
684	
688	
660	
702	
665	
684	
668	
673	
675	
623	
650	
672	
640	
645	
638	
638	
673	
649	
660	
645	
661	
652	
644	
705	
645	
651	
638	
654	
661	
618	
649	
603	
648	
605	
613	
643	
588	
594	
613	
649	
623	
615	
582	
648	
603	
623	
610	
625	
599	
657	
605	
628	
595	
579	
616	
569	
560	
570	
582	
571	
614	
605	
552	
572	
602	
609	
558	
584	
596	
603	
605	
597	
582	
593	
584	
583	
527	
536	
601	
580	
585	
590	
564	
572	
567	
549	
586	
568	
542	
530	
539	
563	
575	
561	
523	
569	
551	
585	
576	
555	
587	
517	
546	
546	
517	
544	
528	
550	
535	
511	
506	
519	
527	
510	
512	
567	
550	
527	
550	
496	
573	
580	
536	
516	
508	
573	
504	
509	
492	
506	
556	
476	
508	
524	
491	
511	
494	
541	
504	
498	
517	
513	
507	
506	
479	
492	
487	
497	
466	
507	
538	
504	
518	
518	
525	
476	
463	
458	
479	
517	
464	
477	
521	
483	
512	
497	
508	
475	
472	
454	
468	
478	
442	
495	
463	
488	
486	
451	
477	
447	
476	
492	
505	
447	
500	
482	
485	
450	
433	
462	
496	
517	
463	
488	
503	
490	
477	
450	
488	
466	
458	
461	
473	
432	
473	
454	
460	
435	
433	
452	
457	
448	
461	
446	
485	
446	
452	
465	
454	
466	
470	
396	
442	
479	
420	
466	
441	
458	
495	
425	
456	
448	
414	
426	
461	
466	
459	
463	
468	
433	
433	
456	
440	
419	
447	
407	
428	
447	
449	
462	
436	
416	
416	
426	
421	
397	
411	
453	
428	
443	
412	
433	
410	
438	
424	
423	
432	
434	
408	
382	
430	
428	
406	
398	
440	
423	
423	
384	
386	
418	
417	
416	
377	
407	
422	
385	
403	
424	
411	
393	
415	
417	
399	
399	
392	
367	
413	
416	
386	
442	
399	
388	
380	
383	
418	
434	
367	
416	
381	
401	
393	
371	
402	
395	
359	
370	
392	
396	
425	
398	
401	
398	
376	
374	
392	
370	
398	
384	
387	
342	
403	
396	
425	
376	
369	
381	
363	
400	
377	
373	
351	
373	
376	
417	
396	
415	
376	
347	
378	
401	
358	
387	
404	
368	
376	
349	
410	
327	
350	
377	
382	
388	
370	
397	
357	
403	
391	
393	
370	
402	
366	
352	
371	
337	
350	
333	
391	
379	
368	
367	
292	
387	
350	
352	
352	
386	
355	
375	
356	
377	
375	
318	
326	
358	
331	
370	
364	
378	
369	
338	
373	
370	
369	
376	
380	
354	
371	
324	
367	
348	
353	
356	
316	
330	
346	
345	
368	
365	
385	
356	
354	
348	
307	
335	
343	
326	
360	
360	
354	
342	
362	
361	
340	
317	
342	
368	
342	
336	
326	
344	
309	
317	
353	
297	
341	
317	
358	
354	
326	
341	
327	
343	
363	
333	
357	
324	
350	
349	
308	
337	
331	
305	
349	
319	
342	
355	
340	
346	
303	
328	
328	
319	
347	
316	
317	
333	
306	
344	
344	
343	
315	
328	
336	
310	
332	
339	
310	
352	
312	
280	
307	
312	
329	
311	
331	
335	
331	
377	
326	
339	
314	
320	
338	
289	
301	
308	
331	
337	
333	
321	
302	
310	
351	
319	
340	
323	
342	
311	
348	
327	
342	
322	
304	
314	
296	
359	
325	
276	
318	
278	
299	
365	
306	
349	
292	
304	
263	
326	
296	
332	
319	
303	
301	
325	
305	
293	
298	
312	
338	
313	
296	
314	
330	
337	
287	
299	
317	
337	
377	
276	
272	
314	
294	
309	
289	
285	
297	
325	
292	
317	
296	
301	
298	
309	
284	
310	
272	
291	
277	
301	
300	
305	
289	
309	
312	
300	
310	
296	
316	
281	
288	
308	
293	
281	
302	
287	
299	
298	
284	
288	
301	
266	
302	
290	
306	
268	
294	
274	
287	
286	
296	
268	
293	
307	
285	
296	
289	
300	
241	
275	
293	
293	
284	
264	
283	
307	
303	
281	
286	
297	
317	
270	
294	
293	
266	
267	
296	
300	
288	
273	
275	
321	
304	
292	
265	
310	
259	
273	
275	
285	
284	
288	
277	
264	
291	
259	
289	
276	
272	
270	
276	
275	
252	
288	
241	
270	
282	
265	
269	
281	
272	
260	
232	
282	
260	
282	
271	
269	
262	
283	
289	
258	
258	
271	
260	
270	
271	
302	
272	
260	
261	
264	
253	
264	
279	
286	
251	
259	
251	
267	
255	
291	
262	
267	
229	
293	
278	
261	
260	
275	
252	
267	
259	
253	
270	
281	
286	
253	
272	
269	
274	
263	
258	
272	
233	
269	
261	
259	
249	
271	
204	
296	
263	
249	
238	
266	
257	
226	
276	
248	
264	
271	
253	
250	
224	
258	
273	
235	
264	
245	
233	
254	
229	
245	
258	
245	
277	
260	
254	
240	
236	
242	
241	
277	
224	
246	
253	
241	
260	
247	
218	
278	
234	
246	
237	
234	
244	
234	
256	
274	
255	
257	
224	
238	
256	
203	
243	
216	
240	
227	
255	
238	
267	
259	
237	
268	
231	
215	
257	
253	
248	
240	
266	
255	
230	
254	
231	
250	
238	
234	
261	
242	
229	
246	
234	
247	
230	
242	
271	
229	
209	
252	
223	
247	
255	
267	
221	
250	
233	
240	
220	
230	
230	
246	
232	
234	
229	
250	
222	
245	
232	
244	
237	
235	
221	
227	
217	
235	
225	
232	
225	
214	
230	
216	
246	
246	
246	
213	
222	
230	
202	
247	
246	
232	
206	
226	
225	
212	
235	
208	
236	
222	
221	
241	
250	
212	
201	
231	
213	
232	
207	
215	
223	
218	
230	
229	
224	
223	
205	
232	
234	
207	
216	
237	
213	
208	
213	
232	
211	
207	
236	
218	
201	
202	
259	
222	
242	
215	
219	
216	
215	
229	
206	
231	
199	
228	
211	
219	
213	
233	
219	
216	
214	
227	
232	
205	
209	
216	
207	
211	
220	
227	
234	
213	
216	
185	
247	
214	
235	
240	
206	
202	
219	
222	
207	
220	
215	
238	
225	
210	
183	
208	
216	
199	
211	
230	
193	
222	
239	
204	
220	
198	
222	
237	
216	
234	
215	
198	
227	
232	
228	
210	
182	
209	
211	
230	
195	
231	
214	
211	
227	
180	
241	
191	
216	
232	
197	
209	
212	
222	
190	
203	
201	
236	
197	
192	
219	
199	
197	
169	
207	
191	
205	
210	
193	
207	
207	
216	
214	
208	
192	
190	
205	
200	
189	
219	
167	
219	
203	
172	
212	
214	
204	
195	
192	
201	
197	
189	
184	
205	
175	
205	
194	
205	
198	
193	
210	
232	
209	
218	
200	
230	
200	
209	
196	
208	
202	
200	
207	
173	
200	
190	
171	
200	
199	
218	
200	
182	
178	
172	
191	
191	
193	
204	
201	
188	
214	
211	
195	
190	
194	
204	
194	
216	
187	
205	
213	
167	
185	
199	
192	
196	
190	
206	
185	
173	
178	
180	
188	
186	
177	
198	
187	
194	
167	
199	
179	
199	
188	
188	
182	
219	
198	
190	
203	
167	
201	
189	
212	
206	
195	
238	
168	
178	
175	
200	
196	
187	
195	
194	
187	
178	
182	
207	
171	
222	
182	
195	
185	
208	
173	
199	
192	
181	
190	
168	
192	
178	
168	
182	
174	
191	
180	
159	
179	
175	
184	
220	
162	
187	
200	
190	
185	
192	
207	
177	
151	
180	
181	
182	
173	
183	
168	
190	
177	
181	
188	
211	
177	
168	
174	
181	
156	
202	
199	
166	
184	
191	
170	
191	
163	
204	
185	
158	
191	
168	
169	
167	
196	
191	
166	
165	
184	
187	
167	
172	
167	
170	
177	
162	
185	
172	
183	
173	
190	
163	
173	
173	
186	
152	
186	
172	
170	
154	
149	
171	
166	
200	
171	
162	
170	
185	
167	
155	
181	
168	
181	
175	
141	
188	
180	
169	
193	
177	
164	
184	
163	
168	
155	
161	
151	
162	
180	
147	
184	
180	
158	
157	
187	
181	
157	
138	
176	
170	
190	
175	
178	
174	
153	
133	
183	
172	
179	
153	
180	
156	
142	
160	
163	
147	
164	
173	
179	
177	
197	
171	
161	
167	
150	
148	
173	
161	
188	
166	
163	
183	
161	
163	
179	
177	
152	
174	
156	
172	
185	
174	
174	
165	
189	
146	
160	
168	
144	
162	
153	
126	
155	
156	
175	
186	
160	
174	
179	
148	
142	
168	
170	
161	
182	
180	
162	
176	
146	
149	
132	
170	
160	
170	
139	
167	
159	
158	
148	
157	
165	
150	
161	
158	
154	
133	
176	
174	
188	
165	
171	
166	
171	
143	
141	
154	
156	
149	
156	
142	
175	
155	
162	
152	
167	
163	
148	
173	
132	
151	
144	
154	
168	
159	
165	
164	
175	
160	
169	
165	
157	
147	
157	
153	
188	
148	
151	
167	
140	
158	
146	
148	
144	
170	
162	
130	
143	
144	
174	
154	
148	
136	
150	
174	
146	
145	
151	
149	
120	
170	
173	
145	
163	
130	
155	
146	
151	
167	
154	
154	
158	
129	
162	
166	
156	
150	
145	
174	
148	
152	
142	
156	
144	
145	
163	
157	
145	
155	
144	
136	
143	
139	
148	
150	
140	
130	
144	
153	
157	
160	
149	
166	
145	
158	
131	
152	
165	
144	
145	
149	
148	
153	
148	
144	
160	
165	
145	
152	
148	
135	
152	
157	
160	
147	
160	
135	
143	
141	
138	
152	
155	
133	
128	
148	
129	
145	
175	
141	
128	
144	
142	
130	
140	
139	
159	
151	
149	
142	
161	
140	
145	
156	
145	
140	
159	
121	
137	
153	
130	
144	
139	
146	
138	
151	
150	
122	
148	
134	
142	
141	
136	
144	
157	
159	
133	
125	
143	
123	
137	
176	
140	
139	
148	
140	
139	
140	
134	
145	
161	
134	
161	
147	
140	
141	
135	
133	
137	
139	
141	
126	
131	
138	
149	
130	
138	
126	
157	
144	
152	
142	
117	
161	
141	
141	
138	
151	
161	
108	
127	
138	
135	
120	
158	
138	
136	
148	
136	
138	
129	
154	
132	
146	
152	
130	
126	
156	
137	
113	
136	
159	
118	
117	
149	
146	
112	
144	
120	
132	
141	
141	
158	
153	
115	
127	
140	
141	
130	
150	
142	
127	
125	
125	
127	
127	
148	
129	
144	
134	
119	
134	
137	
139	
130	
145	
124	
143	
137	
121	
134	
127	
125	
147	
118	
142	
126	
130	
135	
164	
138	
122	
144	
121	
142	
134	
134	
131	
114	
122	
113	
125	
150	
137	
137	
144	
113	
126	
125	
139	
108	
139	
136	
140	
135	
132	
129	
131	
123	
116	
125	
126	
136	
135	
147	
124	
138	
133	
103	
125	
129	
139	
133	
117	
151	
120	
109	
138	
140	
106	
122	
135	
132	
136	
132	
127	
113	
133	
127	
102	
128	
107	
118	
102	
146	
125	
145	
113	
140	
119	
134	
111	
110	
112	
124	
115	
131	
130	
123	
119	
111	
121	
135	
107	
121	
117	
123	
123	
103	
122	
132	
127	
101	
129	
120	
111	
115	
105	
137	
122	
122	
128	
123	
127	
133	
142	
130	
109	
134	
118	
126	
129	
132	
125	
116	
136	
92	
112	
105	
126	
123	
136	
142	
116	
132	
118	
129	
123	
118	
113	
124	
121	
119	
132	
121	
121	
135	
100	
139	
121	
141	
106	
112	
118	
112	
119	
113	
110	
124	
105	
107	
114	
114	
114	
141	
124	
122	
100	
118	
130	
116	
109	
100	
119	
127	
122	
138	
115	
104	
117	
116	
116	
117	
105	
119	
140	
120	
135	
128	
114	
117	
118	
116	
130	
117	
115	
112	
141	
126	
117	
121	
120	
126	
113	
124	
109	
128	
113	
103	
112	
114	
120	
114	
112	
113	
128	
105	
102	
131	
125	
127	
110	
116	
121	
122	
117	
107	
135	
112	
117	
115	
142	
110	
117	
96	
114	
142	
108	
105	
99	
117	
121	
108	
103	
120	
116	
127	
122	
104	
100	
122	
133	
116	
93	
114	
114	
116	
110	
105	
120	
116	
135	
108	
119	
111	
121	
111	
139	
112	
125	
123	
106	
126	
102	
105	
91	
125	
110	
100	
114	
117	
130	
108	
132	
121	
109	
105	
107	
125	
109	
98	
99	
120	
135	
108	
105	
117	
104	
112	
113	
92	
107	
112	
105	
118	
130	
108	
92	
122	
98	
124	
136	
121	
113	
100	
104	
130	
112	
103	
130	
115	
101	
98	
112	
102	
100	
97	
113	
115	
99	
111	
114	
106	
98	
104	
116	
98	
102	
116	
116	
113	
119	
81	
104	
103	
100	
93	
96	
126	
110	
112	
117	
90	
101	
106	
129	
126	
116	
118	
108	
94	
109	
108	
97	
101	
97	
120	
91	
112	
110	
92	
107	
100	
109	
104	
103	
105	
120	
90	
115	
98	
99	
99	
123	
105	
105	
87	
105	
113	
99	
118	
111	
115	
102	
94	
93	
112	
107	
127	
87	
100	
104	
100	
112	
107	
99	
103	
100	
97	
102	
75	
102	
97	
113	
93	
104	
102	
98	
122	
86	
103	
101	
102	
104	
97	
113	
110	
112	
95	
103	
104	
101	
93	
93	
111	
90	
102	
107	
90	
90	
90	
93	
116	
95	
90	
105	
100	
110	
77	
82	
94	
107	
105	
117	
103	
90	
91	
112	
100	
75	
96	
106	
79	
95	
90	
105	
102	
90	
99	
84	
91	
91	
91	
104	
91	
95	
101	
100	
106	
100	
94	
99	
106	
77	
87	
110	
100	
79	
101	
82	
107	
95	
101	
93	
91	
84	
108	
86	
95	
94	
88	
86	
97	
90	
74	
93	
90	
87	
102	
98	
108	
117	
88	
82	
86	
99	
87	
112	
100	
109	
97	
80	
104	
86	
105	
103	
97	
101	
92	
105	
88	
103	
92	
99	
102	
107	
100	
94	
93	
95	
85	
103	
89	
80	
96	
99	
90	
89	
110	
99	
94	
101	
100	
93	
89	
68	
106	
102	
104	
96	
89	
100	
83	
86	
104	
91	
104	
77	
88	
95	
87	
84	
100	
102	
100	
98	
101	
102	
72	
126	
89	
83	
87	
88	
100	
82	
94	
66	
107	
103	
96	
83	
103	
90	
91	
103	
115	
106	
112	
78	
110	
102	
99	
91	
88	
100	
104	
95	
92	
84	
104	
77	
87	
99	
98	
80	
94	
76	
88	
74	
85	
96	
97	
98	
87	
83	
88	
86	
96	
95	
84	
86	
78	
77	
105	
82	
71	
86	
91	
77	
98	
79	
104	
78	
90	
79	
93	
95	
73	
80	
92	
90	
80	
82	
87	
100	
83	
89	
88	
82	
114	
81	
90	
79	
92	
76	
99	
91	
89	
80	
89	
92	
89	
76	
96	
105	
84	
84	
76	
84	
88	
88	
96	
96	
90	
71	
86	
90	
96	
95	
85	
104	
68	
79	
87	
93	
79	
77	
81	
89	
98	
89	
91	
76	
88	
76	
105	
68	
82	
79	
92	
71	
88	
80	
80	
87	
94	
86	
101	
75	
98	
80	
77	
91	
72	
84	
69	
75	
90	
84	
72	
79	
79	
94	
104	
86	
82	
82	
90	
83	
92	
77	
77	
58	
103	
89	
84	
90	
86	
75	
90	
84	
80	
79	
119	
96	
88	
71	
93	
102	
81	
70	
68	
78	
94	
90	
86	
76	
75	
84	
87	
102	
84	
78	
86	
93	
83	
82	
78	
102	
104	
85	
96	
82	
84	
72	
87	
67	
87	
95	
83	
85	
81	
88	
76	
76	
81	
70	
86	
66	
86	
81	
90	
85	
95	
98	
81	
98	
85	
80	
78	
95	
94	
73	
95	
83	
71	
80	
71	
69	
70	
86	
78	
86	
79	
91	
76	
84	
72	
81	
80	
82	
78	
89	
72	
84	
87	
89	
80	
87	
75	
68	
81	
95	
79	
82	
80	
74	
77	
74	
101	
91	
66	
64	
77	
75	
61	
72	
76	
86	
67	
83	
79	
86	
87	
92	
94	
67	
86	
65	
85	
92	
76	
81	
76	
68	
65	
84	
81	
86	
76	
79	
75	
86	
89	
74	
96	
80	
71	
70	
78	
93	
82	
90	
91	
69	
64	
83	
76	
62	
65	
87	
66	
73	
81	
84	
73	
80	
71	
63	
96	
90	
72	
66	
96	
61	
84	
56	
79	
82	
81	
65	
86	
76	
71	
72	
66	
77	
93	
66	
78	
72	
77	
69	
76	
76	
77	
65	
83	
75	
86	
80	
80	
78	
81	
73	
92	
89	
71	
77	
77	
76	
79	
66	
78	
71	
83	
92	
71	
81	
78	
93	
67	
77	
69	
74	
62	
77	
68	
75	
90	
77	
81	
84	
77	
71	
80	
60	
68	
79	
72	
76	
65	
79	
64	
73	
81	
64	
77	
56	
83	
80	
87	
84	
88	
65	
82	
67	
64	
61	
65	
65	
89	
84	
86	
58	
75	
64	
75	
75	
69	
76	
66	
67	
67	
80	
58	
63	
90	
78	
61	
75	
74	
74	
83	
78	
63	
81	
74	
79	
70	
93	
77	
81	
73	
84	
58	
62	
76	
53	
74	
67	
92	
67	
75	
76	
65	
76	
72	
80	
74	
67	
64	
84	
60	
83	
78	
68	
69	
73	
67	
90	
78	
77	
68	
74	
90	
75	
65	
53	
77	
68	
82	
76	
70	
64	
63	
64	
75	
67	
71	
78	
67	
78	
79	
61	
72	
76	
75	
64	
78	
77	
75	
76	
48	
94	
67	
61	
71	
73	
83	
78	
74	
68	
63	
88	
76	
62	
77	
72	
67	
56	
61	
53	
66	
77	
72	
67	
66	
74	
65	
74	
63	
81	
77	
57	
72	
72	
70	
75	
57	
74	
66	
79	
63	
77	
78	
65	
66	
86	
64	
66	
64	
73	
58	
57	
84	
66	
59	
65	
66	
68	
72	
69	
59	
64	
60	
79	
61	
73	
65	
61	
70	
93	
59	
60	
74	
66	
65	
68	
72	
63	
66	
67	
59	
66	
71	
76	
65	
67	
71	
78	
53	
66	
67	
65	
80	
68	
61	
66	
63	
83	
61	
65	
67	
55	
63	
70	
74	
61	
52	
55	
60	
73	
53	
61	
80	
70	
60	
74	
73	
62	
54	
73	
56	
57	
61	
54	
61	
68	
74	
72	
68	
80	
73	
67	
64	
71	
80	
69	
62	
66	
78	
50	
68	
59	
68	
67	
68	
53	
52	
56	
66	
78	
62	
57	
71	
64	
67	
68	
71	
68	
71	
69	
75	
62	
60	
55	
71	
60	
66	
62	
66	
65	
63	
63	
62	
68	
61	
76	
59	
68	
58	
66	
69	
65	
64	
72	
57	
75	
71	
68	
60	
53	
58	
74	
64	
67	
62	
63	
64	
69	
56	
61	
57	
67	
49	
76	
55	
61	
75	
68	
62	
49	
51	
72	
66	
47	
57	
53	
70	
67	
59	
58	
61	
69	
65	
54	
57	
70	
62	
57	
70	
66	
65	
59	
67	
72	
51	
71	
63	
55	
80	
63	
54	
52	
61	
55	
64	
63	
59	
66	
73	
68	
72	
53	
69	
62	
58	
74	
65	
61	
51	
59	
56	
58	
57	
62	
70	
67	
55	
66	
63	
59	
61	
53	
61	
61	
55	
53	
61	
55	
56	
54	
74	
48	
59	
50	
62	
56	
52	
38	
57	
72	
49	
71	
53	
58	
56	
56	
52	
63	
59	
58	
61	
59	
41	
57	
63	
71	
51	
52	
67	
73	
50	
51	
60	
62	
59	
60	
50	
56	
71	
73	
70	
56	
56	
58	
48	
54	
53	
60	
59	
56	
63	
57	
62	
79	
51	
70	
62	
52	
64	
60	
53	
59	
58	
71	
52	
60	
73	
46	
61	
68	
55	
60	
75	
72	
47	
53	
49	
69	
54	
59	
59	
64	
78	
64	
66	
51	
53	
54	
47	
64	
61	
48	
53	
63	
72	
70	
56	
46	
70	
69	
74	
50	
56	
69	
70	
66	
63	
58	
64	
48	
63	
62	
54	
56	
57	
68	
62	
63	
56	
59	
49	
50	
58	
71	
55	
68	
64	
55	
57	
60	
46	
69	
56	
50	
54	
60	
58	
65	
59	
48	
46	
72	
53	
56	
66	
51	
57	
62	
63	
63	
60	
50	
46	
62	
48	
47	
55	
50	
57	
53	
52	
53	
44	
58	
61	
70	
55	
53	
61	
52	
70	
54	
41	
49	
53	
51	
71	
53	
58	
56	
61	
59	
70	
58	
57	
53	
57	
56	
55	
54	
59	
55	
39	
64	
47	
49	
50	
63	
39	
59	
61	
44	
55	
75	
57	
59	
47	
59	
44	
64	
44	
54	
61	
59	
50	
53	
57	
58	
74	
55	
52	
55	
46	
63	
49	
69	
50	
65	
47	
38	
55	
58	
63	
38	
44	
48	
67	
47	
53	
61	
61	
63	
53	
67	
59	
59	
49	
55	
53	
52	
60	
59	
60	
57	
50	
54	
43	
50	
56	
47	
59	
60	
50	
43	
59	
46	
53	
57	
66	
41	
53	
64	
42	
60	
37	
59	
47	
52	
51	
54	
55	
51	
56	
48	
44	
49	
48	
61	
51	
48	
60	
48	
56	
70	
54	
49	
58	
52	
65	
49	
47	
61	
38	
60	
59	
55	
57	
58	
47	
56	
61	
49	
44	
58	
49	
53	
50	
51	
40	
60	
59	
51	
58	
56	
59	
56	
51	
45	
66	
57	
56	
51	
60	
57	
41	
59	
43	
51	
57	
58	
55	
50	
49	
48	
49	
54	
54	
55	
45	
44	
39	
50	
58	
46	
49	
51	
49	
55	
51	
41	
43	
52	
72	
49	
51	
62	
44	
56	
47	
68	
47	
54	
43	
67	
49	
55	
58	
61	
50	
48	
47	
51	
51	
51	
58	
51	
59	
59	
60	
61	
61	
44	
59	
54	
55	
47	
48	
48	
50	
58	
61	
41	
41	
54	
50	
47	
58	
42	
56	
43	
66	
48	
38	
47	
47	
39	
44	
52	
52	
58	
46	
59	
55	
45	
47	
45	
44	
49	
43	
40	
50	
48	
56	
53	
56	
54	
56	
61	
41	
41	
56	
59	
51	
50	
43	
58	
47	
46	
45	
56	
38	
59	
44	
56	
61	
45	
46	
59	
44	
53	
53	
47	
54	
46	
40	
54	
50	
50	
38	
51	
56	
48	
55	
45	
45	
48	
51	
33	
54	
47	
56	
52	
48	
43	
50	
51	
40	
53	
39	
46	
54	
55	
58	
59	
58	
50	
59	
42	
60	
61	
50	
32	
43	
33	
44	
39	
47	
59	
48	
46	
51	
53	
55	
42	
48	
37	
50	
53	
55	
32	
45	
52	
56	
53	
43	
49	
43	
39	
58	
40	
48	
38	
47	
65	
44	
53	
47	
53	
49	
52	
48	
43	
44	
54	
55	
28	
50	
43	
63	
44	
44	
42	
55	
28	
58	
49	
45	
64	
59	
33	
46	
44	
45	
51	
47	
38	
42	
48	
43	
47	
55	
51	
46	
46	
58	
48	
52	
42	
57	
57	
36	
47	
44	
51	
60	
46	
62	
63	
41	
36	
44	
39	
47	
46	
52	
56	
47	
48	
47	
48	
42	
61	
46	
48	
69	
33	
49	
44	
56	
55	
47	
38	
52	
62	
47	
42	
50	
42	
45	
58	
40	
46	
53	
49	
56	
50	
42	
47	
46	
32	
43	
45	
47	
34	
63	
46	
35	
45	
48	
37	
38	
48	
37	
45	
53	
44	
40	
45	
62	
48	
50	
46	
52	
45	
54	
46	
46	
39	
43	
37	
50	
37	
35	
38	
40	
39	
47	
51	
42	
59	
31	
51	
50	
45	
63	
53	
48	
44	
50	
42	
46	
57	
44	
48	
33	
39	
58	
51	
36	
42	
35	
47	
50	
46	
57	
43	
46	
40	
35	
52	
44	
45	
38	
51	
47	
38	
42	
40	
47	
49	
54	
47	
36	
48	
44	
34	
44	
43	
45	
51	
45	
49	
36	
46	
53	
31	
46	
43	
51	
41	
39	
45	
42	
42	
49	
43	
43	
37	
50	
36	
40	
40	
55	
38	
45	
42	
39	
48	
41	
40	
33	
45	
40	
42	
43	
39	
44	
45	
42	
47	
43	
48	
41	
60	
35	
54	
46	
37	
52	
45	
41	
47	
46	
39	
54	
38	
40	
33	
46	
47	
46	
45	
48	
46	
37	
50	
33	
41	
34	
37	
48	
50	
44	
52	
56	
48	
45	
39	
46	
42	
38	
46	
29	
54	
49	
39	
47	
33	
37	
43	
38	
32	
47	
39	
46	
35	
47	
48	
33	
47	
50	
36	
50	
36	
37	
34	
37	
38	
49	
41	
41	
42	
42	
50	
48	
41	
37	
33	
52	
43	
42	
43	
37	
51	
43	
43	
47	
35	
43	
40	
41	
45	
57	
56	
47	
48	
37	
37	
39	
35	
38	
38	
45	
48	
50	
37	
37	
40	
37	
54	
40	
37	
40	
43	
40	
42	
34	
46	
39	
34	
42	
30	
45	
51	
45	
42	
38	
30	
29	
38	
44	
36	
52	
49	
33	
35	
40	
36	
43	
51	
44	
34	
35	
43	
43	
43	
42	
31	
35	
35	
39	
50	
34	
55	
31	
44	
47	
39	
39	
25	
42	
44	
32	
39	
50	
45	
44	
30	
46	
44	
34	
40	
53	
39	
38	
43	
39	
47	
41	
39	
36	
35	
48	
46	
48	
46	
41	
38	
37	
42	
50	
36	
46	
45	
57	
43	
38	
34	
43	
41	
47	
36	
41	
41	
44	
35	
37	
37	
46	
46	
39	
38	
51	
37	
52	
45	
34	
38	
33	
45	
35	
28	
44	
45	
46	
44	
28	
49	
32	
38	
40	
34	
29	
42	
38	
45	
40	
40	
33	
43	
52	
39	
39	
33	
44	
37	
33	
43	
34	
39	
32	
38	
35	
50	
45	
44	
35	
42	
42	
35	
40	
33	
41	
47	
44	
36	
30	
37	
37	
37	
40	
48	
36	
42	
37	
23	
32	
53	
44	
35	
36	
47	
29	
57	
42	
43	
40	
36	
49	
34	
40	
38	
43	
34	
40	
34	
39	
39	
36	
46	
48	
38	
38	
30	
37	
44	
42	
29	
32	
44	
37	
39	
25	
42	
28	
37	
40	
35	
44	
37	
39	
27	
32	
45	
39	
32	
48	
40	
38	
54	
34	
32	
41	
39	
27	
42	
29	
37	
40	
54	
47	
36	
32	
42	
38	
44	
28	
35	
38	
37	
38	
36	
43	
42	
32	
29	
30	
33	
36	
34	
39	
43	
30	
47	
39	
32	
26	
32	
44	
40	
34	
55	
39	
40	
40	
43	
41	
32	
43	
41	
38	
39	
37	
24	
41	
31	
33	
28	
38	
26	
38	
42	
31	
36	
41	
32	
34	
39	
35	
44	
42	
39	
38	
34	
31	
32	
30	
47	
42	
36	
36	
38	
21	
40	
45	
31	
35	
26	
42	
25	
32	
37	
36	
30	
24	
31	
45	
28	
40	
36	
46	
38	
35	
30	
37	
30	
25	
30	
46	
25	
44	
34	
47	
51	
35	
43	
34	
45	
43	
32	
40	
34	
39	
33	
35	
32	
43	
38	
27	
35	
30	
34	
38	
41	
37	
46	
37	
27	
28	
39	
35	
31	
31	
45	
43	
36	
50	
27	
37	
37	
29	
36	
36	
35	
30	
30	
30	
33	
40	
46	
34	
45	
33	
27	
44	
31	
48	
23	
37	
46	
41	
39	
28	
40	
34	
30	
39	
37	
47	
29	
47	
43	
35	
44	
26	
32	
31	
36	
30	
30	
30	
21	
19	
36	
56	
37	
35	
43	
32	
31	
42	
36	
31	
42	
30	
35	
41	
37	
32	
32	
49	
45	
38	
33	
22	
40	
36	
39	
35	
36	
29	
35	
36	
25	
37	
41	
38	
29	
33	
39	
27	
30	
39	
42	
31	
15	
40	
42	
30	
31	
37	
25	
32	
32	
40	
35	
41	
41	
36	
37	
39	
31	
38	
50	
27	
28	
39	
33	
28	
34	
40	
38	
41	
41	
35	
50	
39	
37	
24	
30	
33	
35	
27	
31	
38	
30	
42	
42	
29	
34	
36	
28	
36	
35	
40	
35	
42	
38	
35	
22	
36	
26	
35	
32	
27	
28	
27	
19	
37	
33	
32	
33	
30	
31	
27	
38	
28	
29	
33	
37	
30	
31	
26	
36	
41	
22	
29	
30	
37	
30	
36	
29	
25	
39	
36	
28	
41	
32	
38	
34	
33	
33	
40	
35	
34	
34	
35	
28	
39	
34	
23	
32	
37	
51	
30	
29	
27	
28	
27	
35	
37	
29	
27	
31	
29	
33	
26	
29	
26	
33	
31	
31	
27	
34	
32	
32	
29	
33	
45	
23	
39	
27	
35	
27	
35	
32	
28	
40	
37	
29	
29	
37	
40	
42	
23	
27	
40	
22	
31	
34	
33	
31	
42	
31	
46	
36	
34	
34	
32	
25	
31	
39	
29	
34	
31	
36	
28	
26	
27	
29	
23	
41	
27	
30	
37	
23	
29	
41	
21	
37	
34	
37	
34	
35	
33	
28	
37	
26	
27	
33	
30	
29	
33	
31	
39	
42	
23	
31	
23	
29	
33	
30	
27	
41	
34	
43	
35	
41	
32	
34	
28	
39	
32	
26	
24	
34	
33	
28	
25	
20	
36	
26	
27	
36	
32	
22	
33	
23	
31	
34	
35	
30	
32	
27	
31	
24	
33	
34	
24	
42	
34	
34	
35	
31	
33	
24	
34	
34	
38	
26	
28	
43	
23	
44	
28	
43	
34	
30	
37	
25	
28	
31	
38	
28	
23	
22	
37	
23	
35	
23	
32	
33	
32	
29	
28	
46	
30	
31	
43	
20	
24	
26	
18	
24	
29	
38	
37	
36	
28	
26	
30	
25	
29	
35	
27	
29	
26	
26	
26	
31	
39	
27	
24	
34	
36	
28	
28	
23	
25	
38	
32	
31	
33	
37	
21	
26	
30	
28	
29	
31	
29	
24	
41	
39	
27	
28	
31	
34	
21	
35	
24	
32	
28	
27	
39	
33	
30	
27	
31	
36	
32	
36	
33	
27	
31	
28	
32	
24	
28	
31	
27	
19	
41	
28	
25	
34	
26	
33	
25	
28	
42	
26	
33	
30	
32	
29	
30	
30	
29	
29	
30	
42	
33	
29	
34	
26	
39	
33	
31	
37	
23	
35	
38	
26	
33	
22	
40	
24	
26	
37	
18	
35	
29	
35	
26	
30	
33	
29	
26	
28	
30	
23	
20	
38	
28	
35	
33	
30	
36	
31	
24	
31	
25	
25	
34	
27	
28	
24	
29	
30	
44	
28	
36	
30	
30	
30	
31	
18	
28	
35	
34	
28	
29	
33	
40	
26	
38	
26	
41	
23	
35	
28	
35	
31	
29	
32	
30	
19	
32	
35	
27	
33	
31	
26	
28	
37	
31	
28	
24	
45	
27	
29	
32	
23	
36	
34	
23	
33	
17	
33	
37	
31	
35	
26	
27	
28	
31	
39	
29	
33	
31	
27	
24	
29	
25	
32	
29	
16	
33	
34	
25	
30	
15	
24	
32	
26	
23	
28	
26	
24	
28	
37	
35	
22	
23	
32	
27	
28	
30	
23	
21	
31	
22	
21	
33	
25	
30	
40	
22	
28	
28	
27	
38	
33	
22	
26	
32	
26	
24	
24	
25	
29	
28	
25	
30	
26	
34	
24	
16	
40	
34	
30	
28	
15	
28	
28	
17	
35	
25	
27	
23	
39	
26	
25	
29	
29	
38	
20	
25	
37	
32	
34	
29	
36	
25	
25	
24	
21	
29	
24	
39	
30	
31	
16	
30	
25	
27	
26	
44	
26	
24	
23	
22	
28	
28	
24	
19	
19	
29	
26	
21	
24	
32	
29	
31	
30	
30	
31	
21	
29	
21	
25	
28	
24	
33	
30	
34	
32	
25	
20	
34	
19	
32	
35	
32	
32	
33	
26	
26	
25	
20	
27	
26	
30	
32	
23	
27	
32	
25	
26	
33	
21	
26	
35	
18	
27	
25	
30	
35	
27	
26	
24	
28	
33	
34	
25	
31	
19	
37	
26	
28	
27	
27	
27	
31	
25	
25	
32	
27	
31	
27	
20	
26	
21	
26	
19	
20	
19	
22	
28	
26	
24	
17	
25	
26	
21	
27	
23	
28	
31	
25	
23	
26	
24	
25	
25	
28	
32	
31	
23	
21	
33	
19	
29	
28	
25	
21	
25	
34	
26	
24	
26	
20	
29	
33	
22	
31	
24	
15	
32	
29	
31	
17	
27	
26	
24	
38	
23	
25	
23	
33	
34	
22	
35	
25	
27	
26	
25	
23	
32	
31	
33	
20	
31	
29	
26	
19	
29	
33	
22	
30	
18	
21	
30	
22	
18	
22	
29	
21	
23	
29	
20	
28	
26	
29	
32	
26	
31	
31	
26	
27	
29	
36	
25	
30	
23	
18	
25	
28	
30	
21	
28	
24	
29	
26	
33	
25	
21	
30	
26	
22	
26	
22	
30	
21	
18	
20	
22	
23	
29	
28	
23	
28	
27	
23	
27	
18	
23	
28	
21	
30	
30	
18	
28	
22	
26	
38	
21	
23	
27	
21	
26	
24	
23	
24	
34	
20	
19	
21	
25	
17	
19	
18	
30	
24	
22	
26	
22	
24	
28	
15	
26	
28	
27	
27	
26	
28	
30	
26	
29	
23	
25	
22	
22	
28	
24	
29	
25	
34	
27	
23	
26	
24	
26	
18	
16	
20	
22	
25	
21	
33	
18	
26	
23	
25	
32	
17	
36	
23	
34	
25	
26	
28	
20	
23	
23	
23	
25	
29	
29	
28	
34	
26	
35	
29	
28	
23	
31	
36	
30	
19	
18	
23	
27	
25	
22	
23	
24	
24	
25	
20	
25	
18	
18	
25	
17	
21	
15	
22	
28	
22	
26	
21	
26	
34	
20	
27	
25	
21	
24	
19	
35	
25	
26	
27	
19	
23	
28	
25	
24	
26	
23	
18	
19	
24	
28	
22	
17	
23	
17	
18	
19	
27	
31	
22	
21	
20	
20	
17	
23	
24	
29	
23	
20	
28	
29	
25	
29	
24	
23	
28	
15	
22	
21	
24	
25	
21	
20	
19	
25	
18	
27	
26	
36	
28	
21	
24	
23	
16	
26	
22	
25	
30	
29	
17	
22	
19	
26	
21	
25	
27	
21	
20	
16	
32	
27	
22	
27	
24	
20	
21	
14	
33	
27	
32	
29	
26	
25	
19	
14	
29	
24	
14	
25	
28	
22	
25	
20	
25	
22	
20	
25	
26	
26	
24	
21	
24	
22	
31	
27	
24	
21	
19	
18	
30	
32	
27	
33	
27	
21	
17	
24	
28	
15	
17	
14	
19	
17	
24	
32	
27	
20	
25	
30	
19	
25	
14	
31	
20	
20	
16	
25	
27	
26	
27	
27	
27	
22	
32	
17	
16	
25	
21	
29	
25	
23	
20	
22	
25	
20	
17	
28	
19	
16	
23	
27	
28	
18	
11	
24	
16	
23	
25	
23	
28	
20	
27	
28	
17	
19	
32	
25	
19	
30	
18	
27	
22	
29	
30	
25	
28	
23	
24	
24	
19	
20	
24	
23	
29	
25	
27	
24	
31	
28	
23	
22	
30	
30	
21	
33	
27	
22	
25	
20	
20	
27	
22	
22	
24	
25	
19	
29	
22	
15	
21	
14	
24	
17	
27	
21	
29	
21	
21	
26	
19	
31	
16	
21	
22	
13	
22	
19	
26	
36	
28	
29	
23	
25	
13	
27	
34	
25	
19	
23	
22	
24	
24	
15	
17	
22	
16	
23	
17	
21	
17	
18	
19	
24	
25	
19	
18	
23	
25	
12	
25	
23	
29	
24	
7	
23	
14	
28	
27	
17	
15	
30	
17	
30	
25	
24	
20	
26	
24	
23	
19	
20	
22	
18	
24	
36	
19	
23	
19	
26	
27	
18	
26	
19	
26	
28	
22	
25	
19	
30	
20	
15	
20	
24	
17	
19	
18	
23	
24	
14	
18	
16	
32	
12	
21	
21	
30	
23	
19	
16	
26	
23	
20	
17	
19	
30	
14	
18	
23	
22	
26	
28	
24	
21	
12	
24	
21	
17	
20	
18	
20	
24	
23	
12	
24	
33	
27	
19	
26	
24	
24	
28	
25	
24	
19	
19	
17	
14	
21	
23	
28	
18	
29	
24	
19	
23	
22	
32	
19	
19	
23	
20	
23	
23	
18	
20	
21	
19	
22	
29	
11	
24	
19	
26	
25	
26	
17	
25	
23	
22	
23	
16	
17	
21	
24	
21	
28	
20	
27	
17	
24	
26	
26	
26	
21	
26	
14	
21	
24	
20	
29	
21	
21	
24	
19	
21	
15	
21	
23	
21	
20	
11	
16	
12	
17	
28	
22	
22	
14	
17	
25	
19	
24	
25	
17	
32	
24	
25	
18	
19	
17	
14	
21	
17	
17	
20	
17	
11	
17	
23	
13	
24	
20	
26	
20	
17	
22	
17	
9	
15	
19	
15	
22	
20	
16	
24	
13	
23	
18	
15	
21	
18	
17	
24	
25	
12	
28	
27	
24	
27	
16	
21	
14	
12	
24	
27	
16	
19	
16	
19	
18	
14	
24	
27	
17	
23	
19	
19	
34	
26	
20	
17	
22	
27	
21	
12	
18	
22	
18	
21	
20	
26	
21	
19	
17	
32	
15	
16	
16	
17	
31	
14	
22	
18	
15	
21	
22	
19	
22	
29	
21	
16	
20	
17	
14	
17	
27	
17	
26	
22	
30	
15	
20	
24	
27	
10	
26	
28	
23	
16	
17	
22	
21	
19	
13	
28	
28	
13	
26	
25	
22	
18	
20	
11	
19	
23	
22	
23	
22	
16	
18	
16	
22	
20	
17	
18	
15	
19	
23	
16	
18	
16	
15	
17	
28	
14	
20	
16	
17	
17	
21	
18	
19	
14	
23	
14	
16	
21	
21	
13	
28	
19	
23	
13	
25	
22	
20	
17	
17	
18	
24	
24	
18	
25	
27	
15	
13	
31	
17	
31	
17	
15	
18	
20	
17	
21	
18	
17	
23	
24	
26	
29	
28	
17	
15	
13	
12	
19	
8	
13	
21	
25	
19	
28	
23	
15	
17	
23	
18	
19	
17	
23	
14	
13	
25	
23	
14	
17	
23	
32	
22	
9	
16	
27	
18	
18	
17	
23	
16	
19	
19	
17	
19	
17	
16	
21	
11	
13	
14	
15	
23	
25	
21	
16	
18	
17	
20	
17	
20	
25	
18	
19	
24	
16	
17	
17	
16	
16	
24	
15	
20	
15	
22	
22	
16	
21	
15	
11	
19	
22	
12	
24	
11	
14	
15	
25	
18	
21	
11	
16	
27	
31	
15	
10	
17	
19	
18	
18	
21	
13	
12	
14	
22	
15	
19	
10	
22	
18	
12	
12	
25	
10	
22	
18	
18	
20	
21	
20	
20	
18	
25	
18	
24	
28	
16	
20	
21	
23	
26	
16	
11	
18	
8	
12	
19	
12	
16	
15	
12	
19	
25	
20	
27	
18	
15	
22	
20	
19	
18	
16	
