#PicoHarp 300  Histogram Data			05/24/2022 06:03:05 PM
#channels per curve
31250
#display curve no.
0	
#memory block no.
0	
#ns/channel
0.0320	
#counts
2	
4	
6	
0	
2	
2	
4	
2	
2	
3	
1	
3	
2	
3	
1	
3	
3	
3	
3	
5	
5	
2	
7	
2	
5	
3	
3	
3	
5	
1	
3	
1	
4	
3	
3	
3	
3	
3	
5	
3	
3	
2	
2	
5	
5	
2	
1	
3	
4	
4	
5	
1	
1	
3	
5	
1	
1	
2	
3	
4	
3	
0	
4	
0	
1	
4	
3	
2	
2	
3	
5	
4	
5	
2	
2	
4	
3	
3	
6	
3	
3	
3	
3	
4	
6	
0	
0	
3	
2	
3	
4	
3	
2	
2	
1	
3	
1	
5	
4	
2	
3	
2	
2	
3	
3	
3	
4	
3	
4	
3	
4	
2	
1	
3	
0	
1	
0	
1	
2	
6	
2	
2	
1	
1	
2	
3	
3	
3	
2	
8	
1	
3	
3	
4	
3	
3	
5	
3	
0	
3	
2	
3	
2	
4	
2	
6	
4	
4	
3	
2	
2	
1	
7	
5	
4	
3	
2	
2	
1	
1	
1	
1	
1	
2	
2	
5	
2	
2	
2	
2	
3	
1	
0	
1	
4	
1	
4	
2	
5	
3	
1	
4	
1	
3	
6	
1	
6	
1	
2	
5	
1	
1	
3	
1	
5	
6	
2	
4	
2	
1	
2	
1	
6	
4	
3	
2	
1	
1	
4	
3	
2	
2	
4	
0	
0	
6	
4	
3	
5	
5	
3	
2	
2	
3	
4	
5	
4	
5	
2	
2	
1	
1	
5	
3	
3	
3	
2	
2	
2	
3	
6	
2	
4	
4	
3	
3	
2	
4	
0	
0	
3	
6	
1	
1	
2	
4	
2	
2	
4	
1	
2	
2	
1	
3	
2	
8	
3	
4	
7	
5	
1	
4	
3	
3	
5	
6	
7	
1	
2	
2	
7	
1	
3	
2	
1	
6	
2	
0	
2	
4	
1	
3	
4	
4	
5	
3	
2	
1	
2	
4	
3	
2	
3	
7	
3	
1	
1	
3	
1	
2	
3	
1	
6	
4	
3	
3	
2	
2	
2	
9	
0	
2	
4	
1	
6	
4	
1	
8	
2	
2	
1	
2	
0	
1	
6	
3	
1	
3	
4	
6	
3	
3	
2	
3	
1	
5	
4	
1	
2	
0	
3	
6	
0	
5	
4	
6	
2	
2	
4	
0	
4	
4	
2	
3	
5	
6	
2	
3	
4	
3	
1	
4	
1	
1	
2	
5	
3	
4	
2	
6	
2	
2	
2	
0	
4	
2	
2	
2	
4	
4	
3	
6	
7	
4	
0	
2	
0	
6	
3	
2	
4	
3	
2	
6	
2	
2	
3	
4	
4	
3	
6	
1	
1	
3	
4	
6	
0	
4	
3	
3	
1	
4	
5	
2	
2	
0	
2	
2	
3	
3	
3	
5	
4	
7	
3	
4	
2	
4	
1	
3	
3	
2	
2	
1	
3	
5	
0	
1	
1	
2	
3	
3	
1	
3	
2	
3	
4	
3	
1	
4	
3	
4	
1	
5	
2	
1	
5	
6	
3	
3	
2	
4	
4	
1	
5	
3	
3	
3	
8	
3	
1	
3	
3	
2	
2	
4	
2	
0	
1	
4	
1	
3	
2	
4	
1	
6	
4	
6	
4	
6	
4	
2	
1	
4	
5	
5	
1	
3	
4	
4	
1	
1	
1	
6	
1	
2	
1	
2	
2	
1	
2	
3	
0	
5	
2	
5	
3	
4	
6	
1	
6	
2	
4	
4	
2	
5	
3	
3	
1	
1	
2	
4	
3	
5	
4	
5	
3	
2	
3	
3	
3	
3	
2	
2	
5	
3	
6	
3	
2	
3	
2	
5	
1	
3	
3	
3	
3	
4	
3	
4	
2	
4	
1	
3	
0	
1	
1	
4	
3	
3	
6	
5	
3	
4	
3	
6	
1	
2	
4	
1	
2	
2	
1	
3	
2	
4	
4	
2	
4	
3	
6	
6	
1	
5	
3	
0	
2	
5	
1	
1	
1	
6	
3	
1	
5	
5	
4	
6	
1	
1	
2	
2	
2	
7	
4	
4	
5	
2	
3	
2	
2	
6	
0	
3	
2	
2	
3	
5	
1	
1	
3	
1	
6	
2	
0	
0	
0	
1	
2	
3	
2	
1	
1	
4	
2	
3	
3	
1	
4	
1	
0	
4	
3	
2	
2	
2	
4	
3	
5	
1	
3	
3	
1	
1	
5	
5	
1	
1	
5	
2	
4	
5	
6	
4	
2	
5	
1	
0	
1	
5	
3	
1	
2	
5	
3	
0	
6	
2	
1	
2	
4	
2	
3	
1	
2	
3	
4	
2	
2	
4	
4	
3	
4	
4	
1	
2	
1	
2	
1	
1	
4	
2	
3	
0	
4	
4	
1	
2	
5	
3	
1	
2	
3	
6	
4	
0	
3	
3	
0	
3	
1	
2	
0	
4	
5	
3	
5	
2	
1	
3	
2	
3	
4	
5	
4	
3	
1	
9	
2	
1	
3	
3	
1	
7	
3	
1	
5	
0	
0	
2	
1	
3	
2	
2	
4	
1	
1	
2	
3	
0	
2	
4	
3	
1	
2	
1	
2	
3	
4	
4	
1	
1	
4	
2	
4	
2	
2	
2	
6	
2	
2	
2	
4	
1	
7	
5	
4	
4	
4	
2	
1	
4	
0	
2	
0	
6	
5	
3	
2	
2	
0	
3	
5	
4	
2	
2	
3	
3	
1	
1	
4	
1	
3	
4	
9	
3	
4	
2	
2	
1	
2	
2	
2	
3	
3	
3	
0	
1	
1	
3	
2	
5	
1	
2	
8	
2	
1	
2	
6	
2	
1	
3	
1	
4	
7	
5	
6	
2	
5	
3	
1	
5	
2	
2	
1	
2	
3	
6	
5	
4	
2	
2	
1	
1	
7	
3	
1	
3	
2	
3	
1	
5	
1	
1	
1	
1	
4	
6	
4	
4	
6	
1	
1	
4	
4	
1	
6	
6	
4	
1	
2	
2	
0	
1	
3	
1	
3	
6	
4	
1	
3	
3	
3	
1	
3	
5	
3	
4	
1	
4	
2	
3	
4	
1	
1	
2	
4	
1	
3	
0	
3	
1	
3	
5	
2	
5	
0	
6	
0	
5	
8	
2	
2	
5	
2	
4	
3	
4	
1	
7	
1	
8	
8	
4	
9	
11	
9	
7	
16	
16	
22	
20	
19	
20	
29	
35	
42	
53	
58	
77	
92	
108	
103	
123	
149	
145	
174	
210	
237	
277	
332	
353	
418	
445	
462	
531	
522	
566	
594	
669	
711	
684	
708	
787	
802	
819	
873	
865	
884	
951	
921	
909	
947	
893	
920	
954	
952	
940	
964	
1000	
949	
977	
970	
944	
951	
917	
908	
938	
928	
958	
937	
889	
942	
955	
879	
932	
917	
882	
880	
954	
850	
882	
867	
852	
878	
846	
850	
859	
916	
871	
858	
863	
877	
869	
842	
884	
862	
852	
874	
837	
836	
884	
806	
847	
842	
803	
810	
832	
814	
824	
815	
776	
829	
769	
785	
778	
809	
784	
794	
754	
824	
826	
785	
804	
805	
768	
753	
750	
762	
782	
744	
766	
750	
743	
715	
785	
775	
708	
710	
800	
713	
743	
748	
768	
737	
786	
741	
713	
692	
746	
717	
759	
714	
695	
660	
687	
709	
730	
763	
695	
748	
702	
707	
666	
700	
721	
721	
708	
641	
668	
664	
697	
693	
689	
680	
667	
698	
709	
657	
673	
668	
691	
693	
691	
653	
666	
654	
633	
679	
627	
691	
659	
648	
703	
628	
683	
681	
684	
659	
605	
621	
692	
666	
672	
638	
694	
664	
633	
673	
589	
656	
656	
636	
617	
616	
616	
680	
615	
637	
647	
632	
639	
651	
683	
640	
653	
649	
646	
633	
602	
634	
642	
610	
596	
616	
595	
614	
648	
577	
586	
601	
636	
623	
616	
637	
645	
609	
617	
632	
632	
565	
604	
665	
604	
622	
595	
620	
632	
572	
620	
642	
624	
604	
620	
650	
593	
590	
583	
620	
593	
589	
588	
623	
621	
604	
626	
595	
586	
609	
596	
570	
563	
613	
631	
599	
569	
592	
545	
582	
591	
602	
580	
585	
586	
593	
564	
572	
568	
596	
549	
554	
597	
539	
553	
594	
575	
572	
574	
574	
606	
569	
539	
597	
589	
599	
592	
568	
545	
575	
540	
562	
508	
592	
576	
532	
540	
544	
551	
563	
551	
545	
533	
542	
551	
570	
537	
548	
554	
558	
525	
539	
553	
565	
540	
548	
546	
553	
565	
565	
573	
533	
535	
514	
539	
558	
561	
501	
547	
546	
515	
559	
519	
545	
526	
544	
542	
535	
558	
554	
527	
559	
551	
506	
518	
533	
542	
531	
531	
533	
525	
532	
570	
538	
499	
485	
507	
517	
513	
502	
525	
518	
545	
502	
526	
476	
531	
534	
487	
562	
568	
503	
545	
501	
475	
540	
518	
504	
491	
500	
479	
530	
523	
500	
546	
532	
486	
494	
522	
541	
478	
498	
507	
494	
498	
502	
513	
489	
497	
487	
506	
501	
465	
511	
536	
529	
448	
478	
539	
491	
504	
492	
479	
495	
480	
531	
515	
507	
502	
487	
525	
537	
458	
513	
454	
514	
499	
503	
481	
531	
475	
534	
494	
513	
516	
468	
557	
478	
480	
482	
499	
477	
498	
494	
508	
483	
484	
471	
461	
489	
471	
494	
490	
479	
504	
469	
501	
465	
454	
450	
509	
445	
484	
480	
465	
486	
459	
490	
496	
445	
472	
464	
449	
442	
455	
482	
432	
452	
516	
443	
468	
471	
495	
474	
486	
486	
437	
498	
454	
459	
480	
465	
486	
455	
473	
442	
471	
453	
508	
511	
475	
446	
443	
485	
472	
451	
416	
471	
440	
422	
441	
477	
448	
442	
446	
457	
463	
456	
442	
470	
478	
496	
453	
446	
417	
465	
449	
417	
402	
453	
463	
464	
462	
509	
443	
485	
455	
474	
425	
479	
460	
438	
474	
461	
449	
447	
456	
427	
448	
442	
447	
501	
459	
459	
440	
450	
440	
441	
467	
432	
454	
436	
429	
455	
440	
423	
430	
422	
462	
448	
428	
426	
447	
432	
430	
383	
450	
448	
466	
400	
408	
390	
448	
425	
486	
429	
470	
439	
450	
419	
416	
409	
449	
416	
479	
408	
402	
490	
430	
411	
422	
409	
451	
407	
434	
427	
421	
437	
417	
443	
425	
425	
413	
448	
431	
449	
442	
409	
456	
381	
418	
385	
423	
441	
418	
425	
397	
399	
407	
386	
406	
429	
452	
429	
435	
451	
399	
416	
467	
384	
440	
407	
412	
434	
422	
452	
423	
397	
391	
431	
378	
449	
412	
462	
424	
413	
384	
393	
388	
399	
430	
414	
406	
426	
408	
405	
410	
414	
416	
395	
423	
438	
442	
372	
418	
387	
400	
402	
408	
434	
424	
382	
361	
427	
377	
411	
403	
386	
404	
392	
421	
417	
407	
407	
390	
395	
418	
398	
394	
398	
417	
401	
383	
403	
382	
403	
407	
394	
391	
395	
386	
367	
371	
398	
402	
399	
385	
362	
393	
390	
406	
390	
372	
368	
363	
424	
408	
408	
403	
383	
338	
420	
398	
369	
412	
385	
420	
403	
359	
407	
352	
413	
373	
385	
407	
411	
369	
392	
430	
419	
386	
410	
361	
383	
395	
411	
411	
418	
363	
369	
400	
417	
440	
412	
375	
368	
396	
377	
358	
383	
380	
383	
426	
356	
348	
394	
382	
420	
405	
395	
350	
391	
387	
368	
362	
346	
413	
426	
337	
404	
397	
389	
382	
381	
383	
386	
370	
346	
397	
411	
350	
384	
345	
351	
359	
387	
412	
391	
355	
411	
348	
342	
356	
363	
348	
396	
395	
378	
345	
378	
357	
377	
365	
402	
393	
356	
369	
345	
371	
334	
368	
375	
394	
385	
345	
345	
388	
358	
336	
357	
396	
332	
369	
380	
342	
351	
367	
378	
413	
380	
345	
345	
393	
318	
364	
386	
356	
349	
367	
359	
355	
359	
315	
331	
383	
364	
345	
332	
346	
351	
342	
340	
386	
368	
330	
359	
375	
365	
314	
363	
350	
348	
373	
376	
349	
380	
361	
363	
330	
344	
330	
373	
341	
340	
324	
334	
366	
370	
337	
385	
367	
337	
356	
362	
344	
334	
347	
342	
346	
375	
376	
324	
376	
359	
363	
330	
359	
368	
390	
365	
327	
312	
341	
349	
377	
335	
361	
333	
341	
322	
325	
353	
372	
357	
352	
332	
332	
311	
304	
337	
318	
340	
361	
351	
346	
332	
338	
371	
347	
344	
355	
351	
308	
374	
330	
338	
349	
367	
325	
339	
329	
354	
337	
334	
333	
338	
381	
327	
337	
321	
322	
340	
312	
347	
353	
332	
335	
335	
330	
321	
354	
366	
365	
303	
350	
303	
365	
309	
310	
330	
362	
361	
298	
328	
344	
348	
345	
313	
341	
332	
295	
325	
350	
335	
336	
311	
331	
333	
320	
338	
317	
379	
327	
349	
372	
339	
330	
313	
335	
299	
325	
336	
341	
347	
320	
352	
334	
326	
323	
330	
324	
354	
335	
352	
342	
331	
318	
306	
344	
314	
324	
308	
321	
318	
305	
327	
316	
369	
325	
349	
327	
320	
321	
335	
318	
344	
302	
335	
354	
341	
290	
337	
315	
310	
294	
346	
330	
336	
350	
340	
340	
327	
319	
333	
309	
287	
312	
338	
306	
306	
307	
308	
303	
310	
293	
308	
331	
309	
334	
318	
345	
303	
303	
314	
312	
316	
344	
293	
300	
343	
315	
318	
336	
296	
280	
358	
279	
300	
328	
334	
318	
316	
351	
337	
335	
348	
288	
319	
342	
311	
333	
284	
344	
301	
343	
302	
326	
295	
297	
274	
315	
302	
308	
295	
305	
275	
298	
298	
315	
339	
310	
323	
300	
314	
290	
289	
288	
327	
305	
318	
311	
287	
315	
316	
339	
297	
313	
317	
317	
283	
319	
295	
289	
300	
292	
299	
339	
321	
314	
310	
287	
276	
304	
294	
258	
286	
280	
287	
282	
295	
296	
282	
299	
306	
298	
340	
297	
297	
298	
306	
322	
305	
292	
318	
314	
302	
293	
308	
297	
318	
309	
289	
276	
271	
328	
275	
301	
283	
314	
312	
301	
313	
279	
302	
304	
296	
301	
297	
286	
285	
294	
294	
283	
308	
314	
283	
298	
311	
277	
300	
310	
267	
294	
312	
298	
319	
285	
301	
279	
300	
298	
249	
294	
290	
272	
274	
265	
287	
293	
303	
300	
322	
304	
312	
288	
285	
283	
292	
307	
263	
276	
290	
290	
272	
309	
290	
269	
300	
285	
301	
285	
305	
314	
287	
271	
267	
315	
282	
279	
319	
272	
293	
311	
270	
311	
273	
274	
284	
284	
287	
298	
290	
288	
321	
270	
247	
307	
293	
333	
272	
294	
251	
282	
265	
299	
291	
268	
291	
284	
302	
261	
289	
275	
269	
326	
289	
269	
311	
285	
267	
288	
299	
321	
304	
306	
267	
252	
306	
259	
259	
295	
289	
266	
269	
295	
269	
261	
263	
271	
276	
292	
289	
255	
267	
286	
256	
293	
306	
295	
265	
271	
256	
286	
282	
269	
245	
283	
271	
260	
260	
298	
258	
265	
279	
264	
241	
267	
291	
268	
261	
284	
269	
271	
290	
295	
250	
257	
269	
272	
252	
285	
297	
276	
285	
288	
286	
281	
278	
280	
290	
304	
291	
271	
256	
290	
277	
259	
273	
234	
260	
258	
253	
253	
261	
286	
279	
252	
292	
273	
303	
272	
261	
283	
286	
272	
274	
289	
305	
250	
294	
302	
260	
283	
267	
249	
282	
281	
262	
261	
259	
251	
282	
251	
282	
305	
262	
264	
242	
264	
244	
274	
260	
306	
255	
242	
266	
246	
232	
246	
261	
258	
279	
263	
267	
241	
315	
276	
263	
231	
272	
275	
239	
259	
267	
262	
260	
250	
250	
258	
256	
256	
257	
252	
270	
272	
267	
270	
284	
247	
270	
271	
272	
240	
223	
266	
240	
256	
246	
242	
252	
241	
236	
248	
281	
267	
249	
268	
261	
223	
263	
277	
282	
220	
250	
269	
290	
272	
263	
273	
251	
243	
238	
278	
248	
243	
261	
228	
231	
247	
255	
254	
251	
251	
258	
251	
265	
253	
278	
258	
233	
261	
259	
258	
254	
243	
253	
240	
249	
233	
250	
222	
267	
249	
259	
247	
266	
273	
254	
249	
242	
242	
269	
243	
292	
253	
283	
233	
231	
258	
245	
241	
224	
251	
244	
227	
271	
248	
238	
243	
295	
259	
252	
238	
241	
236	
238	
260	
261	
235	
249	
249	
250	
250	
267	
255	
251	
260	
243	
231	
267	
247	
225	
254	
266	
243	
249	
257	
228	
261	
238	
244	
242	
257	
226	
207	
225	
253	
251	
247	
269	
211	
242	
258	
220	
277	
209	
257	
224	
237	
222	
226	
220	
238	
231	
230	
227	
236	
246	
203	
234	
198	
232	
256	
273	
276	
230	
239	
236	
208	
227	
252	
249	
260	
218	
262	
226	
218	
262	
263	
271	
250	
250	
247	
263	
266	
243	
249	
230	
236	
221	
253	
245	
255	
213	
247	
230	
228	
212	
234	
242	
241	
270	
237	
248	
262	
234	
210	
242	
230	
254	
229	
231	
221	
230	
222	
196	
252	
235	
246	
218	
236	
244	
213	
232	
213	
226	
229	
250	
250	
221	
235	
237	
239	
243	
258	
220	
213	
221	
227	
275	
201	
222	
243	
255	
231	
230	
250	
199	
214	
220	
225	
211	
234	
195	
236	
221	
226	
247	
210	
233	
252	
247	
230	
235	
227	
235	
224	
246	
234	
242	
230	
231	
253	
247	
255	
225	
225	
226	
241	
256	
221	
219	
245	
201	
215	
219	
212	
252	
255	
221	
232	
225	
205	
226	
214	
221	
232	
231	
241	
207	
224	
220	
196	
233	
198	
245	
230	
247	
214	
234	
232	
201	
225	
231	
219	
209	
203	
246	
198	
217	
230	
224	
207	
235	
213	
224	
249	
241	
240	
228	
265	
242	
232	
210	
209	
219	
216	
218	
213	
223	
219	
211	
218	
195	
214	
216	
204	
207	
218	
232	
214	
231	
211	
218	
235	
206	
194	
233	
233	
228	
255	
220	
229	
220	
227	
199	
201	
222	
236	
237	
224	
204	
214	
248	
224	
184	
224	
208	
211	
206	
229	
216	
219	
213	
228	
226	
234	
208	
209	
208	
232	
215	
206	
227	
216	
235	
213	
223	
202	
207	
215	
208	
211	
235	
190	
225	
210	
195	
173	
220	
225	
206	
190	
199	
212	
231	
231	
197	
264	
191	
217	
231	
218	
217	
194	
194	
220	
194	
195	
212	
237	
198	
220	
214	
228	
231	
244	
209	
201	
212	
238	
221	
220	
230	
218	
232	
222	
209	
213	
186	
226	
220	
224	
210	
192	
213	
237	
211	
204	
196	
218	
210	
186	
223	
229	
210	
201	
209	
212	
213	
185	
229	
233	
218	
217	
211	
185	
212	
194	
224	
194	
196	
218	
217	
211	
219	
218	
199	
223	
211	
227	
215	
204	
233	
220	
203	
223	
213	
200	
208	
216	
196	
216	
216	
234	
209	
195	
219	
207	
202	
223	
221	
208	
192	
222	
199	
210	
195	
217	
205	
217	
168	
189	
201	
222	
209	
200	
207	
187	
198	
189	
210	
225	
198	
211	
212	
215	
210	
186	
206	
221	
192	
201	
193	
216	
204	
211	
216	
191	
203	
194	
192	
219	
203	
204	
211	
229	
196	
182	
208	
228	
193	
212	
203	
206	
194	
184	
203	
200	
183	
193	
203	
182	
217	
186	
209	
208	
200	
201	
203	
212	
222	
211	
204	
197	
178	
208	
207	
205	
184	
203	
219	
205	
216	
190	
209	
186	
203	
196	
214	
191	
194	
214	
188	
198	
195	
189	
206	
183	
212	
201	
184	
198	
213	
204	
211	
180	
189	
177	
179	
201	
187	
206	
196	
173	
190	
219	
187	
203	
204	
207	
185	
184	
205	
199	
185	
166	
207	
182	
214	
196	
197	
174	
210	
180	
202	
205	
215	
215	
186	
187	
159	
207	
185	
190	
192	
213	
224	
195	
203	
149	
188	
180	
183	
172	
166	
182	
201	
194	
192	
191	
187	
184	
186	
192	
190	
209	
176	
196	
164	
186	
203	
214	
180	
202	
193	
197	
199	
209	
189	
195	
190	
164	
190	
204	
159	
193	
202	
208	
198	
196	
194	
189	
175	
204	
208	
204	
185	
192	
205	
194	
187	
183	
207	
201	
200	
192	
200	
177	
174	
176	
161	
192	
203	
203	
168	
178	
174	
194	
173	
197	
179	
164	
165	
203	
184	
192	
180	
183	
194	
173	
200	
183	
192	
198	
178	
181	
192	
202	
169	
191	
202	
178	
177	
200	
172	
203	
186	
198	
197	
173	
189	
163	
180	
185	
202	
175	
164	
170	
190	
181	
200	
181	
165	
156	
159	
152	
181	
188	
198	
177	
175	
198	
186	
189	
195	
184	
184	
176	
205	
177	
196	
148	
181	
186	
202	
186	
199	
147	
201	
172	
201	
190	
192	
176	
198	
196	
177	
167	
196	
170	
189	
174	
193	
176	
189	
186	
204	
174	
194	
168	
193	
181	
210	
194	
181	
201	
179	
174	
148	
174	
184	
175	
174	
190	
179	
186	
160	
152	
161	
185	
161	
158	
194	
185	
190	
189	
180	
192	
177	
166	
155	
188	
175	
171	
179	
204	
180	
166	
193	
169	
190	
182	
183	
183	
191	
164	
180	
147	
179	
173	
172	
186	
176	
196	
155	
165	
166	
168	
205	
156	
169	
167	
180	
168	
173	
177	
182	
184	
191	
189	
180	
162	
191	
176	
180	
192	
211	
161	
195	
186	
185	
195	
152	
175	
147	
181	
188	
158	
167	
178	
173	
173	
158	
196	
160	
183	
176	
187	
178	
200	
181	
160	
170	
169	
174	
173	
175	
168	
176	
171	
182	
163	
155	
178	
189	
167	
177	
171	
170	
154	
178	
153	
178	
150	
187	
162	
185	
157	
198	
153	
153	
167	
173	
177	
158	
158	
160	
170	
167	
161	
182	
187	
158	
167	
166	
171	
179	
175	
161	
166	
170	
167	
175	
155	
171	
181	
169	
166	
198	
161	
166	
180	
187	
180	
162	
182	
187	
154	
178	
174	
168	
171	
165	
173	
165	
158	
176	
160	
181	
171	
150	
163	
174	
179	
144	
144	
191	
170	
163	
157	
154	
163	
178	
170	
169	
156	
159	
179	
176	
175	
162	
144	
152	
161	
178	
168	
163	
155	
148	
164	
166	
164	
155	
180	
170	
149	
156	
156	
185	
184	
152	
169	
173	
170	
184	
158	
175	
176	
165	
173	
164	
156	
171	
152	
168	
188	
154	
149	
160	
150	
149	
174	
164	
165	
179	
150	
163	
170	
156	
160	
176	
172	
182	
192	
156	
158	
195	
192	
157	
164	
180	
169	
170	
153	
147	
151	
151	
168	
148	
163	
170	
177	
146	
160	
177	
151	
163	
167	
162	
164	
173	
169	
178	
166	
181	
157	
168	
163	
160	
156	
169	
190	
176	
147	
162	
166	
173	
177	
155	
167	
171	
155	
148	
154	
156	
183	
170	
169	
148	
161	
175	
154	
172	
161	
152	
163	
153	
160	
160	
160	
137	
160	
174	
166	
134	
178	
153	
156	
167	
155	
166	
172	
135	
164	
152	
174	
150	
155	
163	
161	
148	
183	
157	
156	
148	
169	
174	
148	
137	
161	
147	
154	
143	
178	
174	
168	
165	
167	
172	
149	
158	
155	
171	
136	
152	
136	
193	
160	
156	
157	
164	
162	
170	
153	
170	
176	
167	
172	
174	
151	
147	
160	
161	
150	
139	
155	
153	
164	
141	
146	
143	
170	
153	
144	
129	
144	
145	
157	
157	
189	
146	
139	
160	
157	
142	
191	
161	
159	
146	
160	
156	
142	
148	
154	
151	
170	
149	
169	
160	
155	
168	
167	
142	
149	
156	
134	
140	
157	
164	
139	
150	
135	
159	
158	
143	
162	
160	
139	
137	
141	
128	
154	
154	
156	
154	
153	
144	
179	
168	
168	
138	
155	
161	
157	
147	
154	
163	
148	
148	
148	
151	
143	
153	
145	
152	
152	
166	
141	
152	
145	
160	
141	
149	
142	
159	
155	
144	
122	
152	
160	
149	
178	
151	
156	
129	
152	
164	
160	
151	
161	
131	
143	
137	
148	
133	
155	
155	
161	
158	
122	
148	
163	
150	
137	
152	
150	
168	
152	
146	
138	
141	
159	
170	
136	
129	
153	
164	
137	
158	
148	
142	
160	
135	
146	
140	
154	
165	
163	
129	
132	
140	
144	
145	
149	
150	
132	
162	
134	
131	
154	
151	
136	
144	
145	
154	
164	
155	
152	
164	
158	
168	
115	
168	
148	
145	
159	
170	
157	
115	
173	
121	
153	
161	
133	
153	
143	
150	
143	
141	
155	
141	
173	
156	
140	
159	
144	
148	
155	
136	
151	
129	
143	
154	
167	
131	
138	
141	
157	
140	
138	
150	
156	
143	
129	
167	
129	
135	
132	
135	
171	
142	
147	
137	
145	
128	
145	
153	
135	
153	
140	
126	
132	
143	
140	
154	
151	
145	
161	
132	
118	
133	
144	
140	
135	
151	
129	
143	
149	
148	
131	
130	
151	
151	
140	
136	
135	
123	
171	
110	
143	
146	
151	
137	
149	
138	
148	
160	
146	
143	
124	
141	
148	
136	
116	
141	
148	
152	
138	
139	
141	
132	
114	
132	
123	
148	
131	
153	
140	
130	
133	
149	
160	
167	
127	
162	
133	
135	
142	
140	
133	
138	
148	
142	
138	
124	
138	
147	
127	
138	
139	
128	
129	
145	
139	
155	
137	
140	
144	
141	
119	
143	
134	
143	
149	
175	
139	
132	
133	
140	
139	
128	
151	
131	
126	
140	
136	
128	
149	
127	
143	
122	
127	
137	
138	
147	
137	
125	
140	
149	
149	
146	
137	
145	
137	
151	
149	
144	
132	
139	
153	
148	
120	
149	
142	
154	
141	
132	
131	
108	
139	
141	
154	
122	
139	
137	
136	
134	
130	
117	
148	
150	
114	
154	
142	
123	
114	
160	
129	
124	
132	
127	
151	
148	
131	
133	
130	
126	
147	
159	
118	
132	
129	
140	
147	
120	
132	
135	
128	
148	
139	
113	
129	
130	
128	
138	
152	
140	
129	
136	
131	
136	
128	
136	
131	
148	
138	
140	
145	
142	
146	
135	
119	
150	
122	
130	
128	
130	
136	
127	
116	
127	
132	
127	
142	
157	
125	
141	
125	
143	
121	
139	
140	
118	
135	
111	
133	
139	
140	
133	
145	
141	
131	
138	
127	
121	
136	
149	
120	
137	
116	
116	
136	
121	
116	
143	
163	
123	
133	
148	
163	
128	
128	
123	
151	
127	
139	
131	
135	
126	
124	
123	
127	
141	
120	
115	
135	
129	
121	
125	
126	
132	
155	
118	
126	
119	
133	
143	
142	
132	
133	
117	
141	
129	
120	
131	
136	
142	
125	
125	
121	
137	
118	
139	
127	
130	
138	
145	
119	
139	
121	
138	
116	
126	
130	
131	
138	
127	
139	
127	
114	
125	
123	
133	
117	
130	
119	
142	
130	
145	
131	
140	
136	
134	
95	
103	
125	
141	
135	
136	
147	
142	
162	
110	
150	
136	
135	
116	
137	
121	
121	
111	
126	
138	
122	
107	
115	
124	
115	
127	
127	
121	
135	
116	
121	
129	
104	
116	
114	
137	
118	
128	
121	
151	
139	
126	
128	
122	
125	
143	
120	
126	
140	
125	
112	
155	
117	
112	
120	
122	
122	
127	
107	
145	
127	
113	
126	
132	
113	
109	
127	
128	
116	
126	
139	
131	
117	
128	
106	
107	
128	
143	
116	
123	
94	
122	
121	
123	
127	
118	
152	
116	
127	
115	
144	
138	
126	
124	
113	
109	
126	
128	
130	
107	
128	
141	
93	
126	
127	
126	
121	
124	
116	
123	
135	
124	
125	
131	
129	
125	
123	
115	
108	
115	
126	
113	
130	
128	
125	
109	
115	
130	
119	
127	
117	
130	
131	
133	
140	
151	
118	
133	
119	
131	
105	
116	
113	
124	
104	
129	
101	
119	
113	
113	
107	
117	
106	
131	
131	
127	
128	
144	
102	
122	
130	
108	
111	
111	
122	
106	
106	
123	
118	
117	
131	
119	
131	
132	
94	
114	
120	
120	
118	
100	
105	
120	
141	
135	
139	
114	
119	
117	
106	
119	
118	
123	
103	
104	
123	
129	
137	
132	
120	
118	
114	
105	
116	
125	
155	
112	
116	
120	
126	
111	
115	
123	
139	
120	
125	
126	
115	
115	
112	
123	
109	
121	
118	
129	
121	
118	
132	
122	
134	
105	
123	
134	
123	
98	
114	
134	
107	
115	
114	
115	
97	
100	
116	
116	
129	
111	
114	
119	
117	
128	
132	
122	
132	
123	
118	
106	
128	
119	
129	
121	
134	
110	
115	
117	
126	
101	
113	
121	
112	
117	
120	
114	
106	
130	
128	
127	
117	
120	
112	
96	
125	
121	
125	
133	
124	
116	
114	
115	
91	
120	
118	
105	
136	
118	
130	
104	
121	
98	
126	
124	
132	
136	
94	
113	
123	
110	
126	
93	
100	
107	
123	
115	
95	
118	
107	
104	
101	
107	
111	
125	
121	
111	
106	
115	
115	
119	
104	
106	
116	
101	
104	
105	
110	
113	
136	
122	
104	
127	
108	
121	
114	
120	
107	
121	
113	
131	
119	
132	
101	
119	
121	
118	
105	
108	
103	
94	
115	
106	
107	
112	
104	
119	
119	
116	
116	
130	
120	
134	
102	
94	
117	
103	
117	
110	
128	
116	
103	
126	
135	
130	
107	
105	
134	
117	
107	
103	
117	
101	
105	
144	
109	
126	
116	
126	
108	
114	
112	
114	
108	
111	
105	
105	
110	
115	
110	
114	
128	
99	
117	
141	
101	
121	
106	
99	
117	
111	
123	
115	
103	
117	
107	
110	
100	
88	
124	
94	
115	
110	
113	
114	
125	
100	
115	
103	
106	
110	
101	
103	
128	
108	
102	
124	
100	
98	
113	
121	
113	
110	
108	
113	
108	
103	
116	
114	
108	
116	
150	
122	
112	
91	
121	
101	
133	
118	
99	
122	
122	
113	
102	
107	
120	
113	
113	
114	
115	
87	
104	
119	
112	
118	
115	
115	
119	
113	
102	
107	
118	
117	
124	
104	
93	
129	
134	
116	
113	
137	
115	
97	
102	
108	
107	
104	
111	
109	
94	
85	
119	
94	
121	
111	
116	
112	
106	
118	
120	
117	
102	
111	
124	
121	
103	
103	
104	
104	
111	
111	
107	
98	
103	
120	
96	
88	
126	
116	
108	
120	
115	
110	
110	
112	
101	
96	
112	
132	
110	
100	
100	
116	
97	
123	
93	
116	
96	
98	
97	
116	
86	
100	
107	
110	
98	
120	
105	
82	
97	
106	
119	
108	
102	
115	
109	
114	
115	
116	
107	
120	
102	
106	
98	
92	
122	
101	
98	
124	
113	
113	
106	
113	
99	
108	
96	
104	
105	
97	
100	
112	
96	
115	
101	
96	
103	
115	
112	
107	
108	
87	
116	
107	
109	
99	
108	
101	
121	
101	
102	
101	
99	
123	
130	
116	
121	
111	
116	
119	
89	
82	
97	
101	
90	
98	
102	
113	
111	
99	
117	
119	
102	
118	
116	
92	
115	
92	
110	
102	
85	
86	
106	
107	
104	
113	
97	
103	
113	
98	
115	
93	
108	
96	
99	
90	
95	
91	
113	
104	
103	
98	
107	
101	
102	
103	
118	
99	
109	
98	
90	
120	
89	
87	
101	
108	
99	
110	
130	
106	
115	
100	
112	
105	
128	
108	
125	
95	
95	
119	
104	
100	
106	
84	
114	
93	
108	
99	
105	
104	
104	
94	
101	
95	
95	
97	
98	
110	
110	
91	
88	
91	
112	
84	
110	
95	
101	
101	
112	
75	
108	
111	
93	
115	
95	
107	
97	
103	
105	
110	
102	
98	
101	
117	
113	
114	
116	
102	
92	
99	
116	
102	
114	
97	
103	
107	
89	
87	
82	
94	
112	
100	
102	
90	
99	
121	
109	
107	
91	
95	
109	
90	
75	
120	
68	
85	
101	
96	
88	
109	
117	
101	
105	
87	
76	
100	
121	
115	
115	
103	
112	
95	
98	
86	
82	
88	
87	
102	
77	
98	
118	
84	
99	
103	
96	
106	
109	
119	
103	
94	
113	
92	
116	
100	
99	
109	
96	
112	
110	
97	
107	
88	
108	
90	
97	
103	
86	
124	
88	
101	
99	
95	
113	
104	
100	
113	
97	
89	
115	
90	
111	
91	
98	
98	
99	
108	
82	
86	
91	
101	
93	
120	
90	
100	
100	
115	
99	
90	
99	
105	
90	
110	
109	
111	
98	
116	
97	
85	
111	
100	
86	
97	
95	
103	
93	
110	
104	
90	
93	
101	
98	
88	
103	
94	
98	
102	
100	
94	
97	
92	
118	
82	
95	
105	
113	
81	
101	
90	
108	
97	
85	
111	
100	
98	
110	
99	
102	
107	
101	
87	
81	
108	
85	
97	
94	
101	
91	
105	
102	
81	
95	
107	
97	
108	
92	
96	
90	
108	
105	
88	
100	
89	
89	
90	
120	
89	
85	
81	
103	
115	
88	
101	
110	
90	
103	
120	
101	
98	
85	
117	
112	
101	
104	
85	
83	
108	
105	
81	
98	
97	
100	
126	
89	
106	
71	
112	
97	
88	
80	
83	
68	
88	
92	
129	
84	
102	
92	
101	
91	
98	
108	
101	
80	
100	
97	
103	
99	
94	
99	
104	
102	
98	
101	
97	
110	
76	
87	
101	
83	
103	
83	
94	
90	
94	
94	
92	
105	
95	
85	
106	
107	
93	
86	
81	
98	
79	
97	
90	
97	
94	
92	
98	
76	
115	
105	
104	
106	
109	
98	
114	
99	
111	
94	
87	
83	
96	
101	
95	
96	
107	
90	
86	
89	
101	
102	
102	
83	
100	
77	
75	
86	
92	
94	
100	
88	
81	
94	
95	
93	
96	
92	
84	
94	
92	
90	
95	
94	
88	
107	
87	
83	
91	
89	
87	
89	
99	
103	
102	
78	
87	
90	
108	
98	
88	
102	
101	
87	
80	
93	
85	
92	
76	
85	
77	
102	
89	
91	
90	
98	
83	
96	
81	
100	
91	
81	
92	
105	
92	
88	
85	
87	
89	
99	
75	
88	
77	
97	
100	
91	
72	
99	
78	
93	
92	
90	
94	
91	
105	
85	
84	
67	
82	
98	
98	
88	
104	
89	
87	
82	
84	
93	
82	
109	
91	
101	
79	
108	
103	
97	
99	
96	
86	
83	
74	
89	
85	
88	
77	
78	
87	
94	
96	
96	
102	
83	
91	
87	
85	
96	
86	
81	
82	
83	
97	
99	
115	
81	
92	
115	
81	
87	
73	
95	
95	
107	
91	
91	
102	
90	
90	
89	
100	
85	
95	
92	
79	
94	
75	
82	
81	
87	
85	
98	
99	
78	
106	
100	
101	
87	
99	
81	
76	
58	
72	
95	
98	
94	
83	
77	
91	
72	
95	
79	
74	
103	
87	
87	
105	
90	
85	
94	
89	
94	
69	
77	
80	
81	
71	
87	
98	
69	
95	
103	
100	
89	
103	
76	
76	
78	
86	
72	
89	
72	
105	
67	
79	
77	
82	
78	
83	
91	
103	
80	
80	
94	
90	
71	
83	
101	
70	
70	
86	
95	
79	
72	
99	
85	
83	
81	
89	
75	
78	
79	
84	
74	
87	
87	
74	
100	
88	
76	
94	
78	
95	
93	
84	
91	
91	
71	
95	
79	
91	
78	
80	
81	
105	
89	
84	
81	
91	
91	
72	
95	
89	
81	
88	
99	
73	
86	
108	
80	
94	
84	
92	
67	
92	
84	
90	
95	
88	
106	
95	
78	
81	
84	
87	
82	
102	
104	
86	
98	
89	
97	
78	
78	
87	
84	
97	
93	
90	
85	
82	
76	
83	
78	
90	
90	
77	
79	
79	
92	
86	
81	
82	
93	
90	
88	
68	
75	
70	
77	
96	
77	
81	
102	
98	
72	
79	
88	
88	
70	
101	
92	
93	
85	
85	
87	
86	
92	
103	
68	
76	
81	
94	
93	
78	
82	
88	
78	
89	
95	
83	
86	
76	
86	
82	
90	
87	
66	
85	
97	
95	
81	
83	
76	
100	
77	
99	
74	
74	
77	
89	
75	
76	
105	
68	
85	
91	
86	
76	
86	
96	
78	
89	
87	
95	
81	
91	
76	
81	
73	
81	
77	
83	
102	
92	
75	
87	
72	
100	
94	
79	
75	
90	
74	
68	
75	
90	
73	
76	
96	
83	
96	
95	
98	
90	
87	
63	
90	
81	
81	
83	
80	
75	
91	
72	
91	
77	
70	
72	
78	
89	
96	
75	
61	
80	
90	
77	
76	
72	
68	
97	
84	
85	
82	
76	
94	
89	
73	
74	
80	
84	
91	
83	
82	
82	
88	
79	
86	
75	
67	
88	
97	
84	
77	
70	
90	
67	
82	
100	
65	
74	
93	
92	
93	
80	
85	
82	
92	
76	
90	
83	
76	
64	
85	
75	
82	
80	
81	
90	
75	
88	
86	
58	
76	
90	
92	
72	
84	
86	
79	
79	
87	
70	
73	
82	
85	
77	
74	
81	
76	
86	
85	
69	
64	
96	
93	
76	
84	
90	
70	
90	
65	
78	
71	
76	
68	
70	
62	
88	
70	
86	
92	
75	
64	
103	
90	
75	
70	
88	
79	
64	
76	
69	
59	
83	
95	
84	
91	
61	
71	
90	
81	
79	
78	
95	
81	
89	
82	
93	
79	
84	
81	
95	
77	
75	
69	
78	
65	
72	
73	
91	
68	
87	
70	
83	
82	
76	
82	
89	
88	
82	
66	
64	
85	
90	
69	
83	
97	
64	
89	
67	
69	
73	
76	
70	
68	
73	
92	
81	
82	
80	
75	
70	
75	
63	
81	
76	
79	
74	
83	
82	
62	
64	
78	
74	
73	
76	
63	
73	
80	
71	
75	
92	
68	
77	
80	
84	
62	
68	
80	
79	
81	
81	
80	
76	
67	
77	
77	
79	
72	
76	
76	
75	
82	
77	
71	
68	
75	
78	
78	
72	
81	
95	
74	
79	
81	
77	
72	
75	
69	
88	
76	
74	
82	
72	
68	
70	
70	
72	
72	
77	
67	
66	
81	
94	
88	
66	
78	
61	
69	
69	
80	
63	
87	
79	
63	
73	
70	
72	
67	
78	
73	
79	
87	
78	
66	
89	
84	
87	
83	
67	
81	
67	
69	
68	
83	
68	
85	
78	
95	
70	
85	
71	
81	
63	
89	
63	
70	
78	
58	
95	
81	
73	
63	
69	
68	
71	
86	
79	
80	
85	
107	
83	
70	
81	
78	
62	
75	
68	
70	
68	
76	
61	
68	
77	
72	
71	
65	
82	
77	
73	
72	
82	
76	
73	
70	
67	
81	
78	
72	
80	
62	
73	
72	
77	
87	
73	
87	
71	
76	
67	
67	
90	
73	
80	
74	
71	
69	
73	
70	
61	
70	
63	
69	
69	
64	
80	
62	
73	
75	
70	
62	
64	
79	
83	
73	
87	
66	
79	
68	
78	
71	
69	
62	
72	
63	
82	
66	
69	
72	
82	
76	
73	
78	
82	
63	
84	
72	
62	
70	
82	
65	
73	
76	
66	
91	
70	
85	
70	
81	
72	
76	
59	
64	
75	
60	
77	
66	
72	
72	
62	
68	
72	
74	
67	
78	
76	
86	
71	
58	
79	
77	
77	
73	
60	
71	
85	
68	
74	
63	
64	
73	
74	
64	
72	
70	
65	
75	
69	
77	
79	
80	
58	
60	
83	
80	
74	
75	
66	
91	
76	
73	
77	
81	
69	
74	
69	
55	
65	
65	
58	
72	
65	
61	
75	
76	
69	
79	
62	
62	
79	
75	
69	
74	
66	
64	
67	
61	
76	
62	
68	
79	
60	
71	
76	
65	
75	
63	
65	
71	
84	
73	
86	
89	
66	
71	
86	
67	
65	
63	
80	
69	
78	
72	
60	
61	
77	
88	
76	
71	
83	
79	
51	
48	
64	
62	
70	
79	
69	
63	
79	
70	
80	
80	
73	
80	
78	
76	
77	
62	
69	
73	
76	
61	
75	
64	
66	
74	
75	
50	
73	
87	
73	
65	
75	
87	
72	
78	
74	
80	
79	
63	
78	
80	
71	
62	
73	
65	
60	
51	
60	
85	
65	
76	
74	
80	
74	
75	
66	
68	
77	
69	
62	
69	
69	
59	
66	
62	
82	
66	
73	
58	
76	
78	
61	
82	
74	
64	
61	
64	
65	
60	
83	
70	
64	
71	
68	
65	
62	
67	
65	
70	
72	
65	
64	
74	
70	
74	
69	
67	
64	
64	
66	
74	
60	
68	
74	
61	
73	
74	
64	
63	
64	
64	
72	
72	
79	
64	
58	
81	
62	
80	
68	
60	
69	
82	
68	
74	
59	
54	
68	
69	
65	
69	
82	
56	
65	
68	
67	
60	
62	
64	
74	
61	
68	
72	
57	
79	
67	
58	
55	
74	
64	
57	
65	
73	
62	
61	
59	
53	
56	
63	
64	
56	
64	
81	
66	
64	
72	
73	
56	
73	
83	
62	
69	
63	
66	
59	
74	
72	
70	
72	
69	
51	
65	
60	
59	
56	
63	
68	
59	
84	
52	
64	
65	
73	
67	
60	
61	
66	
66	
63	
83	
75	
63	
74	
74	
58	
68	
79	
62	
69	
72	
72	
64	
76	
62	
64	
84	
77	
59	
72	
64	
66	
69	
63	
74	
81	
63	
49	
71	
72	
66	
62	
77	
69	
59	
69	
86	
66	
72	
62	
72	
70	
67	
57	
60	
58	
46	
58	
77	
75	
72	
66	
74	
75	
65	
59	
51	
66	
65	
69	
60	
72	
56	
79	
76	
57	
65	
71	
71	
69	
67	
59	
61	
54	
67	
76	
69	
56	
79	
65	
62	
63	
61	
46	
67	
74	
53	
58	
69	
76	
55	
80	
68	
53	
53	
55	
61	
62	
87	
68	
70	
56	
62	
80	
62	
58	
58	
73	
64	
67	
60	
61	
81	
61	
77	
52	
72	
60	
53	
78	
73	
67	
65	
57	
71	
64	
65	
74	
61	
71	
70	
65	
66	
55	
55	
73	
58	
60	
58	
71	
77	
59	
62	
57	
55	
59	
69	
69	
79	
64	
62	
74	
78	
68	
70	
69	
66	
72	
60	
76	
78	
65	
58	
60	
61	
52	
60	
68	
71	
67	
60	
63	
64	
70	
79	
58	
72	
62	
62	
75	
66	
53	
59	
44	
67	
60	
76	
68	
67	
80	
57	
66	
52	
70	
63	
71	
55	
60	
59	
67	
73	
59	
55	
61	
57	
59	
71	
83	
64	
61	
65	
58	
47	
59	
70	
70	
68	
59	
69	
67	
59	
61	
48	
62	
86	
55	
68	
55	
74	
67	
51	
66	
61	
69	
69	
67	
64	
63	
77	
79	
64	
60	
54	
67	
68	
74	
71	
57	
57	
67	
70	
70	
79	
52	
70	
58	
79	
55	
56	
51	
70	
69	
60	
54	
64	
66	
61	
63	
78	
67	
55	
63	
59	
59	
64	
67	
59	
76	
66	
55	
61	
64	
64	
67	
75	
59	
70	
