#PicoHarp 300  Histogram Data			05/24/2022 06:15:02 PM
#channels per curve
31250
#display curve no.
0	
#memory block no.
0	
#ns/channel
0.0320	
#counts
6	
4	
3	
5	
2	
1	
5	
3	
4	
7	
4	
7	
5	
6	
2	
3	
4	
5	
3	
4	
2	
4	
2	
5	
8	
1	
2	
1	
2	
4	
2	
2	
6	
3	
4	
4	
4	
3	
2	
4	
4	
4	
4	
7	
3	
6	
5	
2	
2	
3	
4	
2	
3	
2	
4	
3	
2	
5	
2	
2	
3	
7	
4	
7	
5	
4	
5	
4	
2	
5	
4	
4	
2	
3	
5	
1	
5	
3	
2	
7	
3	
2	
6	
7	
2	
5	
1	
3	
3	
2	
5	
4	
5	
7	
1	
3	
1	
6	
7	
2	
3	
3	
3	
3	
4	
2	
9	
6	
6	
5	
5	
6	
2	
6	
3	
2	
6	
4	
3	
2	
2	
3	
1	
4	
3	
3	
2	
2	
5	
5	
8	
6	
4	
3	
2	
2	
5	
2	
3	
2	
9	
8	
0	
2	
4	
2	
3	
7	
4	
5	
0	
3	
3	
6	
6	
1	
7	
3	
3	
0	
5	
2	
4	
5	
6	
5	
3	
2	
8	
1	
8	
6	
3	
3	
7	
4	
3	
5	
1	
3	
4	
2	
4	
2	
0	
5	
4	
9	
2	
3	
4	
5	
7	
1	
3	
3	
6	
1	
3	
0	
3	
3	
7	
6	
5	
6	
2	
1	
0	
7	
2	
1	
2	
4	
4	
5	
10	
0	
3	
5	
4	
3	
7	
3	
3	
5	
3	
5	
4	
4	
3	
1	
5	
2	
1	
8	
5	
2	
5	
9	
5	
4	
2	
2	
3	
3	
3	
3	
7	
2	
2	
2	
10	
7	
3	
4	
4	
3	
6	
3	
3	
7	
4	
3	
5	
8	
1	
2	
3	
3	
4	
5	
8	
3	
4	
4	
5	
3	
3	
7	
2	
7	
6	
3	
4	
8	
7	
6	
3	
7	
2	
3	
3	
1	
5	
2	
5	
2	
6	
6	
2	
4	
4	
5	
2	
6	
4	
1	
3	
2	
3	
1	
3	
4	
7	
4	
3	
3	
4	
6	
2	
4	
2	
3	
3	
3	
3	
1	
4	
4	
4	
0	
5	
4	
2	
5	
2	
2	
0	
1	
4	
2	
3	
2	
8	
5	
3	
0	
5	
1	
3	
5	
4	
4	
5	
5	
3	
4	
2	
4	
6	
3	
7	
3	
1	
3	
7	
3	
5	
2	
1	
2	
3	
3	
1	
9	
5	
4	
6	
2	
5	
5	
5	
7	
4	
5	
3	
2	
4	
1	
4	
2	
2	
3	
2	
5	
8	
5	
3	
4	
5	
5	
3	
5	
2	
7	
5	
6	
4	
1	
9	
5	
6	
2	
3	
6	
6	
2	
2	
3	
3	
3	
5	
4	
2	
2	
5	
1	
3	
4	
3	
1	
2	
5	
4	
5	
13	
5	
3	
1	
3	
3	
5	
5	
5	
5	
2	
5	
9	
10	
3	
5	
4	
3	
4	
1	
5	
6	
4	
4	
4	
2	
4	
5	
0	
6	
3	
4	
2	
6	
3	
3	
3	
3	
2	
4	
6	
7	
2	
3	
4	
6	
2	
2	
6	
4	
4	
2	
2	
6	
5	
3	
3	
4	
3	
7	
4	
5	
5	
4	
2	
3	
5	
4	
3	
4	
5	
5	
5	
4	
4	
4	
5	
3	
8	
4	
1	
2	
2	
4	
7	
2	
5	
2	
4	
6	
5	
1	
5	
4	
3	
3	
1	
3	
6	
6	
3	
2	
3	
3	
4	
4	
3	
4	
3	
3	
4	
2	
6	
6	
7	
3	
5	
3	
5	
2	
4	
2	
3	
8	
2	
1	
1	
6	
5	
1	
3	
2	
3	
4	
2	
5	
5	
4	
3	
6	
4	
3	
2	
4	
5	
4	
5	
4	
2	
1	
3	
3	
3	
5	
2	
3	
4	
7	
2	
3	
2	
5	
4	
2	
6	
3	
0	
2	
1	
4	
5	
0	
4	
6	
0	
2	
5	
4	
4	
4	
4	
3	
8	
3	
2	
4	
2	
2	
6	
3	
3	
2	
3	
8	
3	
3	
3	
0	
10	
4	
9	
1	
5	
4	
3	
5	
4	
6	
3	
4	
5	
2	
5	
0	
4	
2	
1	
9	
2	
2	
6	
3	
2	
5	
7	
2	
2	
0	
2	
8	
6	
4	
1	
5	
5	
3	
3	
4	
2	
2	
1	
4	
7	
3	
4	
9	
1	
2	
8	
7	
4	
4	
10	
7	
4	
6	
4	
4	
2	
6	
3	
3	
2	
5	
6	
4	
2	
0	
5	
5	
2	
3	
5	
7	
5	
1	
1	
4	
7	
3	
3	
4	
4	
6	
4	
7	
4	
3	
0	
3	
3	
3	
4	
2	
3	
5	
1	
6	
4	
1	
4	
2	
5	
2	
6	
8	
2	
2	
4	
7	
5	
1	
3	
7	
6	
2	
5	
2	
6	
0	
3	
1	
3	
3	
6	
6	
2	
1	
7	
7	
1	
3	
4	
5	
1	
7	
5	
4	
3	
5	
4	
3	
4	
4	
3	
1	
1	
6	
1	
1	
4	
4	
6	
4	
1	
5	
8	
4	
5	
5	
3	
2	
1	
4	
5	
9	
2	
4	
2	
3	
7	
3	
4	
2	
1	
2	
0	
4	
3	
6	
5	
5	
8	
6	
5	
6	
3	
3	
5	
8	
2	
5	
5	
3	
1	
6	
3	
2	
6	
7	
8	
2	
3	
2	
4	
6	
3	
5	
2	
7	
2	
1	
5	
7	
2	
5	
2	
7	
2	
4	
4	
6	
4	
3	
1	
2	
5	
4	
3	
5	
3	
1	
4	
5	
1	
2	
4	
4	
10	
5	
4	
6	
4	
9	
7	
3	
1	
2	
5	
2	
4	
7	
2	
6	
6	
6	
4	
4	
4	
2	
4	
1	
4	
1	
3	
2	
4	
4	
3	
3	
6	
1	
0	
7	
1	
3	
8	
2	
6	
2	
5	
3	
3	
7	
5	
4	
2	
1	
4	
4	
2	
9	
2	
4	
2	
4	
1	
3	
5	
4	
1	
1	
1	
4	
3	
4	
6	
8	
1	
1	
4	
4	
4	
7	
3	
6	
3	
2	
1	
1	
6	
3	
8	
4	
6	
11	
5	
6	
8	
8	
15	
12	
12	
20	
25	
26	
30	
26	
32	
39	
45	
52	
44	
68	
74	
83	
92	
117	
157	
165	
176	
202	
219	
281	
255	
325	
347	
416	
406	
524	
483	
589	
524	
590	
634	
666	
706	
699	
752	
754	
779	
827	
853	
828	
884	
876	
952	
907	
913	
835	
905	
888	
914	
904	
905	
986	
915	
942	
929	
917	
908	
965	
966	
953	
887	
899	
998	
948	
921	
882	
1000	
941	
923	
888	
877	
951	
964	
901	
878	
880	
893	
896	
882	
954	
862	
889	
890	
889	
911	
878	
916	
902	
862	
880	
872	
899	
868	
785	
889	
850	
876	
810	
835	
788	
875	
830	
811	
816	
903	
875	
853	
836	
878	
837	
817	
839	
846	
880	
822	
826	
791	
848	
864	
839	
827	
870	
841	
762	
810	
807	
873	
845	
822	
825	
753	
814	
817	
784	
838	
822	
814	
844	
811	
796	
844	
837	
771	
742	
837	
790	
792	
744	
804	
727	
753	
809	
736	
805	
789	
794	
791	
818	
809	
760	
747	
756	
765	
749	
773	
763	
757	
838	
802	
738	
767	
733	
741	
735	
780	
719	
738	
757	
766	
738	
727	
753	
782	
721	
748	
747	
774	
726	
751	
718	
764	
772	
738	
731	
696	
740	
759	
743	
761	
751	
721	
782	
740	
731	
694	
707	
709	
703	
748	
722	
723	
732	
692	
657	
709	
706	
711	
723	
701	
729	
703	
720	
709	
683	
711	
740	
756	
764	
689	
712	
675	
703	
743	
665	
692	
700	
704	
692	
683	
674	
690	
761	
731	
655	
675	
679	
696	
652	
742	
698	
684	
703	
683	
663	
665	
704	
696	
725	
668	
658	
689	
716	
688	
690	
678	
692	
625	
690	
686	
683	
701	
659	
661	
668	
709	
620	
668	
654	
670	
650	
640	
674	
698	
672	
661	
667	
701	
697	
593	
626	
670	
645	
688	
647	
649	
701	
685	
713	
670	
690	
662	
634	
645	
626	
638	
654	
662	
654	
609	
695	
682	
651	
664	
612	
642	
654	
628	
612	
638	
703	
604	
602	
702	
649	
643	
653	
646	
612	
637	
629	
613	
610	
642	
625	
619	
610	
609	
621	
626	
641	
653	
633	
628	
630	
611	
598	
580	
605	
593	
609	
603	
648	
647	
619	
651	
624	
631	
573	
641	
648	
630	
647	
624	
647	
642	
578	
635	
571	
642	
587	
628	
614	
635	
623	
586	
607	
628	
585	
635	
579	
629	
606	
617	
613	
641	
592	
612	
629	
620	
597	
570	
589	
586	
579	
598	
661	
617	
624	
581	
600	
644	
595	
555	
553	
590	
599	
565	
585	
598	
586	
582	
585	
610	
585	
625	
568	
578	
608	
579	
563	
603	
626	
556	
584	
614	
587	
612	
575	
559	
547	
615	
581	
583	
600	
581	
525	
616	
573	
541	
597	
543	
565	
578	
577	
562	
560	
605	
571	
556	
580	
580	
542	
556	
603	
612	
558	
559	
592	
544	
599	
598	
542	
529	
604	
585	
618	
544	
555	
559	
547	
554	
546	
554	
544	
532	
551	
513	
597	
558	
557	
588	
609	
580	
537	
537	
575	
554	
577	
560	
553	
531	
547	
543	
549	
569	
538	
580	
540	
562	
536	
601	
555	
572	
513	
590	
575	
532	
576	
601	
553	
571	
570	
533	
588	
542	
543	
529	
567	
546	
517	
519	
538	
510	
544	
528	
534	
494	
533	
544	
530	
527	
538	
604	
523	
541	
514	
526	
494	
573	
581	
548	
512	
547	
553	
516	
542	
512	
512	
512	
545	
490	
541	
542	
528	
529	
560	
568	
527	
543	
542	
497	
532	
493	
513	
546	
548	
485	
557	
511	
529	
513	
552	
573	
478	
487	
514	
486	
512	
530	
524	
532	
513	
505	
485	
524	
498	
590	
483	
511	
507	
507	
516	
484	
506	
510	
521	
506	
494	
525	
535	
498	
514	
479	
485	
511	
514	
560	
509	
484	
517	
496	
539	
509	
523	
515	
494	
490	
538	
534	
508	
555	
506	
518	
527	
512	
535	
487	
484	
509	
505	
523	
508	
493	
522	
482	
498	
553	
477	
511	
501	
478	
436	
500	
488	
490	
482	
563	
474	
501	
500	
478	
488	
526	
478	
494	
491	
504	
468	
471	
479	
497	
524	
461	
493	
528	
528	
525	
503	
475	
488	
473	
473	
488	
549	
502	
496	
482	
474	
516	
473	
481	
481	
458	
483	
480	
450	
469	
468	
508	
471	
459	
473	
443	
465	
512	
472	
460	
430	
428	
456	
506	
499	
471	
474	
457	
511	
503	
507	
487	
459	
443	
474	
449	
487	
509	
473	
457	
452	
467	
443	
494	
459	
483	
507	
483	
479	
487	
465	
463	
458	
474	
478	
486	
506	
460	
490	
457	
455	
493	
469	
452	
460	
471	
475	
431	
446	
460	
468	
467	
475	
442	
499	
455	
457	
460	
459	
440	
478	
465	
451	
453	
442	
465	
404	
536	
457	
457	
416	
462	
465	
465	
463	
419	
480	
427	
483	
455	
440	
463	
433	
484	
487	
450	
429	
483	
450	
404	
451	
494	
438	
478	
456	
444	
407	
487	
456	
480	
451	
451	
433	
431	
436	
431	
386	
449	
439	
474	
468	
467	
433	
458	
488	
411	
443	
457	
439	
423	
454	
441	
430	
451	
421	
457	
475	
415	
458	
438	
446	
428	
440	
445	
449	
447	
468	
442	
433	
452	
443	
439	
421	
405	
437	
404	
408	
441	
416	
452	
454	
435	
454	
433	
428	
438	
470	
429	
454	
442	
445	
431	
443	
407	
447	
413	
450	
419	
413	
395	
420	
436	
427	
390	
391	
431	
448	
407	
431	
450	
426	
441	
414	
433	
422	
409	
442	
470	
443	
418	
397	
396	
416	
442	
425	
433	
414	
445	
459	
405	
382	
417	
432	
392	
438	
426	
429	
396	
415	
402	
415	
404	
415	
431	
405	
396	
451	
448	
388	
452	
441	
382	
424	
433	
381	
426	
445	
427	
414	
409	
406	
414	
436	
386	
446	
394	
427	
381	
429	
415	
395	
390	
397	
451	
428	
387	
403	
428	
428	
393	
401	
397	
423	
418	
367	
419	
380	
399	
412	
376	
400	
429	
381	
373	
437	
389	
411	
407	
433	
408	
409	
382	
393	
406	
396	
391	
417	
388	
416	
428	
375	
420	
410	
381	
387	
380	
393	
427	
409	
401	
415	
388	
392	
429	
380	
404	
400	
418	
452	
360	
404	
373	
393	
430	
409	
358	
406	
392	
371	
410	
413	
418	
421	
379	
418	
427	
398	
395	
399	
410	
398	
423	
375	
394	
401	
391	
403	
385	
368	
416	
414	
374	
390	
385	
375	
381	
408	
403	
372	
409	
390	
389	
394	
406	
400	
361	
392	
356	
439	
372	
385	
407	
393	
424	
359	
381	
397	
371	
399	
394	
396	
376	
386	
360	
366	
382	
400	
393	
387	
372	
393	
409	
371	
428	
411	
380	
387	
368	
399	
393	
365	
398	
420	
382	
385	
402	
367	
382	
384	
361	
410	
357	
396	
382	
388	
363	
375	
414	
358	
353	
387	
382	
398	
385	
408	
377	
376	
400	
361	
416	
345	
371	
376	
391	
399	
349	
376	
368	
393	
381	
412	
393	
386	
370	
369	
378	
392	
401	
396	
358	
340	
341	
383	
357	
414	
363	
367	
375	
347	
385	
370	
373	
404	
403	
362	
418	
355	
415	
326	
369	
372	
334	
354	
363	
379	
402	
356	
378	
368	
409	
342	
384	
351	
375	
356	
400	
331	
334	
351	
353	
349	
377	
364	
369	
381	
366	
382	
357	
349	
385	
357	
392	
354	
383	
322	
347	
402	
370	
392	
361	
378	
381	
352	
343	
336	
357	
355	
367	
360	
393	
354	
382	
389	
342	
346	
325	
341	
343	
358	
344	
358	
361	
353	
325	
380	
339	
386	
341	
326	
360	
354	
364	
320	
343	
329	
363	
369	
356	
368	
350	
366	
357	
333	
341	
357	
347	
334	
385	
334	
336	
325	
336	
334	
344	
383	
381	
365	
367	
346	
325	
328	
363	
354	
348	
357	
352	
341	
386	
367	
356	
348	
362	
366	
332	
368	
340	
397	
333	
310	
342	
391	
355	
348	
364	
346	
365	
349	
324	
335	
344	
333	
357	
351	
335	
356	
353	
348	
355	
357	
332	
382	
337	
336	
349	
371	
314	
288	
299	
343	
372	
356	
348	
312	
353	
324	
365	
334	
352	
354	
310	
335	
335	
318	
321	
326	
321	
342	
353	
328	
370	
346	
369	
345	
360	
341	
321	
336	
293	
353	
318	
328	
328	
316	
343	
326	
353	
303	
336	
311	
311	
340	
327	
324	
315	
356	
316	
356	
317	
333	
363	
298	
319	
317	
341	
301	
334	
328	
304	
322	
341	
312	
340	
318	
332	
367	
317	
288	
321	
320	
339	
313	
301	
325	
312	
320	
329	
359	
322	
335	
329	
327	
300	
303	
320	
326	
345	
321	
342	
341	
333	
327	
361	
335	
340	
329	
342	
330	
326	
320	
314	
318	
312	
332	
339	
342	
341	
320	
312	
299	
328	
328	
310	
346	
312	
308	
355	
358	
335	
308	
312	
311	
340	
351	
348	
321	
318	
332	
325	
341	
293	
326	
346	
309	
331	
303	
292	
329	
284	
317	
320	
331	
305	
313	
317	
332	
307	
321	
330	
317	
292	
325	
299	
339	
324	
335	
327	
317	
314	
327	
310	
340	
342	
351	
329	
306	
316	
274	
297	
310	
319	
328	
315	
317	
326	
321	
302	
343	
319	
272	
317	
319	
284	
318	
280	
302	
315	
316	
296	
302	
296	
279	
322	
337	
333	
310	
320	
302	
278	
323	
285	
303	
333	
273	
345	
325	
288	
307	
318	
285	
327	
291	
277	
296	
308	
313	
324	
280	
284	
298	
326	
309	
281	
300	
325	
311	
302	
310	
297	
294	
306	
321	
292	
325	
293	
291	
316	
338	
310	
307	
298	
319	
307	
328	
288	
303	
295	
318	
314	
300	
302	
295	
292	
300	
290	
323	
333	
308	
322	
295	
312	
336	
301	
292	
316	
313	
294	
281	
329	
278	
296	
297	
342	
272	
312	
285	
310	
321	
296	
306	
282	
276	
285	
318	
317	
282	
324	
288	
309	
260	
263	
297	
298	
323	
324	
314	
290	
276	
296	
280	
315	
289	
291	
284	
286	
311	
313	
270	
285	
290	
338	
310	
267	
310	
336	
335	
289	
309	
302	
293	
274	
313	
293	
287	
297	
290	
294	
318	
300	
267	
291	
286	
293	
273	
301	
323	
285	
295	
294	
297	
279	
289	
306	
301	
285	
287	
296	
259	
297	
285	
264	
296	
257	
280	
270	
275	
285	
272	
301	
297	
284	
297	
319	
270	
265	
272	
295	
279	
285	
298	
279	
280	
297	
263	
299	
258	
276	
293	
276	
284	
299	
278	
271	
311	
261	
258	
260	
298	
303	
273	
263	
285	
286	
299	
269	
280	
271	
264	
291	
247	
276	
268	
266	
292	
268	
281	
278	
258	
302	
301	
277	
288	
276	
278	
293	
290	
258	
298	
260	
252	
304	
236	
292	
277	
289	
288	
278	
260	
278	
289	
270	
284	
302	
262	
261	
282	
303	
277	
275	
257	
269	
243	
240	
301	
287	
240	
258	
265	
289	
262	
259	
253	
279	
298	
278	
271	
233	
256	
289	
281	
279	
298	
260	
296	
251	
282	
291	
252	
259	
254	
288	
251	
282	
233	
310	
276	
256	
236	
251	
252	
278	
276	
285	
285	
292	
259	
293	
288	
250	
250	
254	
278	
305	
261	
237	
296	
259	
274	
276	
246	
288	
267	
247	
286	
256	
279	
268	
238	
235	
269	
281	
266	
275	
280	
254	
270	
238	
251	
260	
258	
277	
272	
264	
257	
250	
274	
272	
249	
286	
253	
268	
290	
239	
248	
241	
272	
270	
291	
255	
246	
272	
273	
246	
273	
271	
271	
265	
245	
295	
290	
252	
290	
274	
255	
260	
285	
265	
282	
244	
240	
292	
256	
287	
248	
266	
279	
266	
249	
279	
257	
237	
262	
256	
257	
269	
257	
256	
246	
259	
281	
239	
257	
272	
249	
260	
264	
242	
252	
236	
229	
280	
244	
246	
243	
246	
244	
286	
264	
257	
238	
252	
281	
229	
254	
258	
288	
245	
270	
243	
262	
277	
247	
260	
242	
242	
266	
274	
250	
247	
239	
280	
221	
267	
270	
223	
214	
264	
266	
232	
259	
264	
246	
247	
277	
246	
245	
243	
263	
224	
253	
253	
260	
237	
238	
235	
248	
274	
275	
284	
231	
271	
258	
274	
242	
231	
226	
277	
265	
235	
261	
249	
222	
258	
261	
270	
261	
242	
259	
255	
276	
238	
271	
255	
257	
252	
255	
233	
282	
234	
255	
247	
224	
254	
236	
257	
261	
243	
250	
250	
254	
259	
243	
215	
228	
260	
262	
259	
262	
245	
236	
259	
254	
236	
238	
238	
264	
265	
231	
252	
267	
230	
230	
239	
225	
234	
246	
244	
237	
243	
238	
260	
230	
253	
241	
238	
229	
235	
254	
233	
219	
233	
257	
233	
233	
233	
236	
217	
231	
259	
247	
237	
252	
217	
238	
215	
272	
237	
248	
249	
275	
246	
250	
235	
241	
246	
216	
258	
246	
264	
239	
243	
249	
252	
237	
259	
220	
223	
245	
199	
211	
230	
236	
240	
242	
212	
235	
251	
224	
239	
225	
239	
218	
247	
256	
254	
236	
274	
229	
226	
227	
243	
251	
225	
227	
245	
209	
234	
235	
282	
241	
220	
243	
229	
227	
252	
243	
228	
244	
230	
214	
242	
246	
284	
226	
228	
216	
220	
235	
230	
247	
233	
251	
226	
223	
227	
232	
238	
233	
233	
248	
237	
223	
210	
249	
219	
266	
236	
231	
226	
231	
240	
264	
242	
228	
212	
236	
226	
226	
224	
213	
224	
242	
234	
244	
239	
253	
239	
222	
250	
224	
224	
209	
233	
215	
243	
223	
219	
225	
197	
236	
240	
220	
218	
243	
221	
210	
218	
242	
203	
238	
229	
224	
208	
231	
210	
223	
200	
216	
221	
218	
241	
222	
245	
242	
214	
234	
214	
230	
198	
230	
249	
212	
223	
219	
193	
231	
234	
247	
235	
241	
196	
211	
215	
262	
227	
214	
199	
236	
205	
234	
225	
248	
230	
238	
222	
239	
211	
225	
230	
250	
236	
232	
261	
228	
228	
220	
192	
248	
205	
223	
231	
185	
208	
231	
235	
208	
225	
221	
215	
208	
221	
222	
209	
205	
230	
244	
233	
213	
252	
222	
252	
220	
228	
189	
214	
226	
236	
212	
244	
214	
193	
228	
217	
203	
205	
211	
214	
207	
201	
263	
212	
232	
214	
213	
222	
211	
225	
223	
216	
221	
199	
202	
221	
212	
230	
215	
201	
226	
224	
219	
207	
209	
213	
226	
214	
218	
233	
219	
214	
207	
221	
214	
222	
228	
218	
197	
239	
198	
219	
225	
209	
207	
217	
208	
196	
222	
200	
204	
205	
213	
234	
197	
183	
205	
202	
209	
223	
224	
214	
212	
214	
205	
214	
212	
212	
203	
227	
208	
224	
197	
229	
246	
212	
221	
207	
202	
215	
233	
209	
221	
200	
218	
222	
247	
208	
198	
196	
207	
188	
191	
238	
225	
212	
200	
205	
194	
215	
222	
230	
216	
207	
226	
209	
201	
208	
219	
211	
216	
214	
188	
192	
188	
211	
209	
190	
200	
226	
207	
207	
215	
210	
196	
203	
231	
186	
174	
230	
212	
213	
222	
191	
204	
221	
218	
204	
226	
228	
216	
209	
200	
231	
200	
224	
197	
218	
223	
233	
215	
202	
206	
218	
215	
179	
206	
228	
193	
192	
205	
224	
210	
212	
215	
193	
197	
219	
208	
193	
195	
214	
207	
221	
208	
186	
210	
198	
226	
236	
182	
201	
191	
182	
234	
203	
185	
205	
202	
218	
186	
201	
219	
243	
204	
214	
200	
191	
234	
195	
189	
204	
184	
171	
186	
220	
177	
198	
176	
200	
191	
179	
190	
201	
186	
213	
185	
221	
212	
203	
213	
196	
230	
201	
226	
182	
189	
191	
194	
164	
206	
188	
183	
215	
209	
194	
221	
194	
200	
208	
159	
184	
214	
218	
210	
151	
197	
183	
205	
182	
193	
171	
198	
183	
197	
196	
181	
201	
207	
199	
192	
216	
195	
209	
170	
206	
193	
202	
206	
161	
209	
190	
193	
201	
186	
185	
204	
184	
218	
188	
185	
228	
191	
172	
163	
194	
184	
190	
187	
195	
181	
200	
177	
180	
187	
187	
184	
207	
207	
175	
194	
235	
177	
194	
195	
198	
203	
188	
205	
182	
175	
187	
191	
214	
177	
226	
182	
200	
184	
188	
174	
175	
157	
198	
178	
169	
176	
195	
195	
174	
217	
198	
194	
163	
200	
187	
209	
208	
197	
180	
185	
196	
209	
200	
215	
192	
213	
219	
187	
200	
168	
180	
193	
183	
198	
201	
166	
191	
175	
166	
171	
198	
209	
192	
191	
178	
198	
202	
196	
193	
201	
207	
181	
189	
178	
191	
202	
189	
179	
196	
196	
214	
175	
191	
198	
191	
184	
196	
193	
181	
186	
182	
206	
197	
185	
197	
194	
213	
189	
217	
203	
207	
178	
190	
194	
192	
209	
155	
191	
159	
183	
183	
183	
184	
202	
182	
184	
209	
154	
191	
176	
204	
192	
177	
178	
186	
173	
179	
185	
180	
182	
196	
162	
163	
172	
188	
189	
188	
187	
213	
190	
167	
190	
183	
177	
187	
195	
188	
193	
196	
178	
183	
179	
164	
174	
181	
198	
179	
183	
176	
194	
172	
185	
167	
197	
190	
180	
176	
212	
184	
171	
212	
176	
172	
176	
189	
184	
169	
182	
177	
195	
179	
181	
175	
175	
157	
171	
175	
186	
165	
184	
198	
166	
179	
190	
177	
180	
189	
178	
176	
181	
190	
177	
182	
195	
180	
184	
187	
180	
205	
179	
216	
202	
170	
170	
173	
198	
201	
168	
184	
184	
175	
162	
157	
171	
172	
183	
182	
176	
180	
184	
182	
175	
198	
191	
164	
184	
174	
187	
172	
184	
159	
165	
180	
167	
158	
185	
162	
150	
180	
173	
188	
184	
184	
183	
188	
181	
195	
167	
147	
184	
173	
171	
195	
186	
204	
162	
196	
171	
191	
173	
175	
174	
173	
183	
158	
165	
171	
188	
166	
162	
181	
157	
178	
162	
197	
173	
191	
178	
177	
179	
157	
147	
146	
155	
167	
178	
186	
171	
159	
186	
160	
157	
152	
173	
173	
166	
173	
182	
157	
165	
160	
169	
196	
168	
171	
180	
172	
174	
180	
186	
191	
164	
138	
173	
195	
197	
179	
174	
174	
147	
159	
199	
185	
191	
170	
180	
163	
176	
172	
185	
163	
170	
183	
182	
178	
170	
164	
182	
154	
170	
140	
190	
181	
171	
194	
181	
175	
192	
183	
175	
176	
172	
149	
174	
172	
187	
167	
189	
166	
165	
164	
165	
155	
174	
184	
135	
161	
167	
157	
149	
159	
158	
190	
175	
171	
168	
172	
160	
184	
184	
164	
165	
152	
172	
171	
183	
165	
181	
152	
169	
191	
166	
173	
171	
162	
169	
156	
159	
187	
157	
159	
151	
161	
158	
172	
189	
176	
168	
183	
164	
164	
167	
136	
173	
192	
173	
179	
176	
162	
168	
172	
152	
167	
157	
187	
161	
176	
159	
158	
156	
172	
155	
158	
160	
159	
158	
159	
160	
165	
166	
193	
166	
162	
161	
169	
174	
166	
158	
165	
166	
176	
151	
157	
170	
159	
185	
162	
147	
156	
157	
184	
145	
150	
168	
163	
187	
166	
169	
161	
149	
163	
180	
140	
163	
148	
153	
154	
136	
180	
146	
159	
159	
169	
157	
165	
152	
194	
160	
170	
155	
162	
169	
164	
190	
188	
159	
171	
160	
152	
145	
171	
177	
163	
146	
173	
130	
148	
173	
160	
164	
181	
159	
172	
173	
195	
152	
182	
172	
166	
146	
160	
137	
154	
165	
152	
169	
150	
171	
141	
138	
153	
171	
138	
152	
172	
169	
167	
183	
155	
144	
147	
161	
160	
166	
184	
148	
141	
136	
165	
155	
145	
183	
160	
175	
159	
159	
162	
135	
148	
152	
165	
175	
166	
138	
185	
152	
128	
151	
149	
151	
157	
151	
162	
140	
164	
158	
160	
158	
147	
155	
150	
144	
152	
154	
161	
161	
155	
152	
153	
167	
159	
172	
152	
152	
146	
152	
147	
164	
160	
157	
163	
151	
166	
158	
171	
176	
160	
159	
176	
165	
150	
167	
156	
146	
185	
163	
146	
140	
192	
165	
152	
135	
150	
141	
162	
153	
145	
144	
162	
159	
164	
132	
161	
130	
157	
164	
183	
145	
164	
144	
153	
162	
158	
139	
137	
135	
144	
154	
146	
143	
163	
176	
151	
152	
148	
168	
161	
160	
151	
177	
167	
164	
151	
143	
137	
175	
139	
141	
153	
165	
159	
163	
140	
154	
146	
153	
139	
147	
169	
152	
154	
143	
137	
151	
145	
145	
135	
139	
155	
171	
155	
152	
138	
162	
137	
139	
145	
159	
156	
156	
136	
160	
170	
153	
155	
149	
147	
131	
151	
183	
153	
155	
162	
166	
154	
147	
133	
156	
156	
128	
155	
145	
146	
157	
141	
148	
149	
135	
133	
149	
114	
159	
133	
169	
141	
147	
133	
140	
158	
144	
148	
153	
150	
158	
140	
138	
148	
138	
133	
168	
153	
133	
150	
145	
141	
136	
156	
134	
153	
135	
160	
173	
138	
128	
147	
153	
159	
148	
147	
128	
132	
152	
153	
151	
139	
152	
176	
139	
159	
157	
164	
154	
137	
136	
137	
151	
164	
124	
134	
138	
137	
149	
141	
142	
149	
129	
134	
137	
153	
164	
157	
153	
134	
154	
147	
143	
131	
143	
158	
151	
167	
133	
152	
129	
137	
156	
131	
153	
149	
168	
160	
142	
154	
140	
138	
151	
165	
145	
142	
126	
158	
133	
167	
135	
128	
145	
153	
161	
128	
150	
164	
148	
164	
150	
139	
121	
138	
134	
136	
145	
135	
137	
135	
139	
132	
150	
144	
131	
136	
123	
142	
171	
162	
144	
176	
140	
150	
141	
141	
142	
152	
145	
109	
140	
145	
141	
149	
147	
143	
132	
141	
152	
150	
136	
139	
138	
132	
140	
130	
146	
163	
130	
129	
172	
135	
149	
157	
134	
134	
136	
145	
133	
155	
141	
147	
143	
154	
137	
133	
159	
135	
132	
129	
142	
130	
144	
135	
148	
123	
143	
142	
146	
141	
147	
154	
128	
130	
132	
129	
153	
146	
123	
141	
123	
144	
138	
133	
154	
130	
126	
149	
116	
145	
138	
123	
144	
123	
146	
147	
154	
136	
123	
143	
146	
142	
141	
125	
135	
139	
144	
121	
133	
138	
150	
135	
138	
118	
131	
138	
139	
146	
147	
142	
168	
141	
123	
140	
147	
124	
94	
122	
120	
150	
132	
138	
140	
144	
136	
146	
145	
148	
153	
137	
130	
119	
130	
139	
130	
139	
153	
127	
132	
134	
137	
137	
149	
150	
150	
116	
128	
124	
150	
124	
137	
128	
148	
129	
129	
147	
140	
137	
116	
143	
120	
144	
132	
132	
140	
136	
138	
106	
142	
140	
113	
115	
134	
127	
143	
122	
142	
140	
145	
156	
127	
138	
139	
132	
137	
132	
124	
133	
117	
143	
130	
156	
143	
133	
134	
122	
127	
134	
128	
147	
133	
131	
143	
140	
144	
141	
155	
136	
135	
136	
127	
133	
120	
119	
117	
155	
147	
137	
131	
134	
128	
129	
129	
129	
126	
114	
123	
120	
138	
154	
121	
128	
146	
146	
121	
143	
124	
116	
135	
123	
137	
148	
136	
134	
121	
134	
119	
145	
130	
109	
136	
128	
141	
112	
129	
114	
127	
141	
127	
132	
139	
136	
99	
134	
128	
118	
112	
131	
121	
133	
146	
125	
126	
109	
118	
121	
104	
127	
138	
113	
132	
130	
118	
132	
132	
145	
139	
149	
147	
129	
122	
132	
141	
125	
121	
135	
126	
138	
132	
115	
151	
139	
133	
120	
144	
138	
126	
134	
137	
128	
125	
127	
124	
126	
136	
133	
135	
146	
113	
119	
122	
138	
118	
147	
129	
125	
130	
120	
113	
113	
114	
132	
128	
118	
132	
134	
113	
112	
107	
131	
130	
134	
134	
134	
114	
131	
123	
123	
118	
144	
130	
144	
134	
102	
115	
129	
124	
125	
134	
134	
99	
141	
138	
131	
136	
112	
129	
129	
111	
110	
143	
144	
131	
128	
102	
122	
143	
131	
113	
113	
134	
118	
137	
142	
136	
127	
133	
114	
128	
122	
136	
132	
119	
132	
139	
126	
137	
134	
115	
102	
127	
152	
136	
136	
140	
150	
117	
140	
103	
156	
116	
128	
129	
117	
133	
143	
126	
131	
117	
131	
110	
110	
125	
131	
116	
136	
112	
122	
119	
130	
143	
125	
125	
119	
116	
123	
122	
131	
97	
106	
128	
126	
135	
126	
127	
119	
132	
122	
123	
125	
121	
113	
137	
132	
117	
122	
130	
127	
118	
127	
121	
119	
127	
114	
137	
113	
112	
118	
104	
123	
101	
110	
136	
113	
123	
113	
116	
113	
138	
123	
138	
129	
107	
113	
107	
140	
108	
121	
108	
125	
115	
120	
117	
134	
132	
105	
124	
115	
115	
113	
111	
113	
104	
113	
109	
158	
127	
148	
122	
133	
138	
129	
118	
127	
133	
145	
119	
116	
120	
115	
116	
115	
131	
106	
124	
126	
119	
131	
126	
129	
131	
108	
143	
134	
112	
118	
114	
144	
126	
109	
118	
119	
121	
122	
114	
115	
115	
111	
114	
108	
131	
115	
125	
128	
136	
124	
99	
134	
112	
138	
116	
117	
111	
114	
123	
111	
128	
131	
115	
99	
126	
120	
123	
112	
142	
121	
136	
131	
94	
126	
144	
145	
121	
129	
110	
133	
102	
125	
123	
138	
126	
123	
103	
124	
131	
116	
118	
116	
114	
117	
118	
122	
115	
117	
121	
110	
126	
106	
116	
121	
111	
122	
95	
117	
115	
143	
133	
104	
132	
135	
126	
121	
105	
122	
111	
136	
103	
122	
122	
115	
123	
108	
132	
116	
113	
109	
122	
133	
109	
117	
119	
136	
122	
111	
124	
129	
125	
142	
124	
108	
113	
128	
90	
110	
104	
120	
133	
122	
129	
106	
116	
128	
118	
106	
127	
113	
119	
120	
109	
108	
98	
130	
122	
104	
122	
114	
124	
108	
123	
110	
115	
127	
108	
108	
122	
108	
121	
115	
117	
106	
127	
126	
113	
117	
116	
116	
134	
121	
112	
101	
130	
130	
108	
108	
110	
117	
134	
125	
121	
109	
105	
114	
129	
118	
114	
101	
111	
123	
112	
102	
120	
133	
124	
124	
126	
112	
127	
108	
123	
108	
130	
116	
111	
97	
109	
126	
120	
114	
118	
104	
110	
110	
124	
109	
115	
103	
132	
111	
122	
107	
117	
118	
128	
123	
113	
108	
110	
104	
110	
113	
111	
118	
114	
120	
128	
126	
110	
108	
130	
114	
129	
117	
107	
118	
124	
106	
124	
117	
127	
121	
97	
103	
101	
118	
113	
113	
113	
117	
127	
122	
105	
100	
137	
121	
122	
114	
115	
102	
100	
121	
113	
121	
124	
120	
98	
108	
113	
109	
123	
111	
111	
120	
115	
119	
120	
92	
107	
113	
107	
103	
108	
118	
126	
101	
95	
100	
103	
105	
118	
99	
133	
125	
119	
105	
118	
115	
103	
103	
116	
117	
113	
88	
108	
95	
117	
115	
95	
97	
96	
101	
110	
107	
117	
124	
131	
119	
102	
108	
111	
96	
108	
112	
111	
122	
119	
107	
93	
98	
99	
114	
105	
117	
120	
105	
136	
114	
109	
96	
103	
109	
114	
97	
90	
111	
111	
111	
109	
105	
105	
110	
99	
106	
114	
115	
98	
108	
113	
108	
102	
105	
98	
117	
116	
109	
92	
121	
129	
99	
112	
91	
112	
108	
108	
89	
89	
99	
111	
121	
117	
106	
101	
98	
93	
94	
103	
106	
114	
111	
104	
120	
111	
101	
123	
109	
123	
94	
79	
104	
127	
103	
93	
108	
121	
95	
107	
101	
89	
91	
95	
93	
99	
137	
120	
125	
98	
122	
110	
118	
117	
120	
107	
129	
101	
106	
127	
107	
85	
99	
113	
99	
97	
139	
96	
93	
90	
99	
93	
138	
112	
120	
102	
114	
103	
129	
67	
102	
100	
103	
112	
124	
101	
102	
87	
114	
115	
83	
104	
104	
121	
89	
107	
104	
97	
107	
104	
97	
84	
133	
124	
87	
102	
110	
100	
106	
101	
95	
99	
105	
104	
106	
113	
117	
101	
88	
109	
110	
95	
120	
109	
81	
104	
106	
108	
95	
103	
114	
89	
100	
93	
82	
103	
92	
94	
106	
87	
81	
105	
91	
107	
135	
100	
114	
117	
103	
106	
105	
95	
120	
116	
107	
103	
105	
107	
103	
103	
115	
97	
100	
95	
105	
90	
103	
97	
109	
95	
98	
104	
106	
106	
116	
109	
104	
83	
106	
106	
104	
106	
87	
99	
102	
106	
104	
93	
102	
101	
107	
105	
103	
108	
91	
99	
109	
89	
104	
85	
89	
107	
81	
109	
101	
111	
100	
98	
86	
101	
115	
109	
105	
102	
107	
100	
110	
96	
104	
102	
89	
98	
108	
108	
106	
120	
96	
101	
93	
98	
94	
85	
116	
106	
96	
113	
106	
85	
106	
101	
117	
114	
106	
87	
105	
107	
99	
97	
115	
89	
102	
112	
105	
96	
98	
98	
109	
90	
98	
85	
97	
109	
104	
99	
101	
93	
112	
110	
105	
114	
94	
108	
83	
107	
77	
108	
88	
107	
93	
99	
87	
119	
112	
98	
95	
105	
92	
117	
115	
98	
99	
126	
117	
87	
85	
88	
97	
101	
88	
78	
109	
106	
90	
93	
84	
97	
88	
79	
73	
101	
103	
101	
105	
97	
105	
102	
84	
111	
90	
99	
98	
106	
110	
95	
94	
96	
92	
100	
101	
106	
101	
103	
118	
88	
113	
109	
105	
91	
95	
106	
105	
116	
85	
81	
89	
109	
98	
106	
104	
105	
92	
102	
100	
127	
89	
104	
115	
102	
116	
94	
91	
86	
109	
95	
100	
88	
89	
94	
96	
110	
113	
96	
105	
108	
91	
99	
90	
114	
106	
82	
102	
98	
87	
92	
106	
99	
100	
101	
92	
96	
94	
107	
91	
94	
115	
102	
91	
103	
106	
84	
102	
93	
88	
90	
96	
106	
101	
94	
90	
98	
89	
96	
94	
88	
81	
90	
107	
93	
88	
96	
112	
83	
87	
101	
87	
95	
74	
113	
88	
92	
88	
86	
95	
65	
104	
100	
88	
93	
89	
95	
91	
77	
100	
102	
76	
91	
84	
87	
93	
77	
89	
81	
80	
93	
118	
106	
81	
87	
91	
95	
83	
82	
94	
88	
83	
106	
91	
79	
102	
115	
93	
103	
102	
101	
98	
99	
97	
86	
98	
90	
106	
86	
109	
93	
91	
96	
84	
82	
105	
118	
78	
82	
93	
96	
110	
96	
102	
86	
87	
86	
87	
87	
85	
99	
87	
78	
94	
102	
88	
81	
91	
77	
94	
97	
94	
100	
82	
95	
101	
84	
82	
102	
116	
105	
88	
100	
91	
96	
89	
94	
98	
80	
104	
90	
110	
89	
97	
89	
97	
80	
101	
108	
95	
78	
87	
84	
95	
97	
111	
90	
84	
99	
72	
95	
91	
94	
93	
86	
109	
92	
97	
90	
115	
95	
87	
83	
99	
89	
84	
87	
90	
91	
104	
103	
81	
85	
77	
83	
109	
101	
83	
94	
113	
116	
90	
104	
95	
86	
100	
91	
102	
70	
88	
79	
95	
109	
99	
79	
90	
92	
88	
104	
82	
90	
88	
83	
103	
86	
89	
109	
97	
81	
96	
87	
85	
79	
86	
90	
99	
97	
93	
83	
86	
104	
90	
117	
111	
99	
92	
110	
88	
96	
97	
95	
97	
74	
92	
103	
91	
94	
103	
81	
107	
81	
84	
78	
87	
75	
76	
74	
86	
92	
79	
104	
84	
78	
90	
81	
96	
99	
91	
85	
96	
87	
76	
75	
85	
91	
84	
91	
86	
105	
95	
77	
95	
74	
86	
96	
91	
108	
92	
89	
81	
79	
97	
83	
92	
74	
96	
88	
80	
88	
73	
92	
73	
94	
91	
87	
85	
91	
85	
84	
81	
117	
98	
100	
86	
96	
79	
96	
82	
89	
75	
87	
104	
82	
87	
97	
84	
91	
89	
86	
94	
88	
100	
88	
82	
80	
85	
75	
72	
89	
85	
85	
102	
90	
82	
92	
90	
89	
77	
83	
90	
97	
83	
86	
75	
96	
82	
85	
82	
92	
74	
86	
87	
104	
74	
86	
89	
104	
98	
92	
92	
82	
87	
93	
102	
67	
83	
85	
96	
98	
96	
72	
85	
85	
91	
86	
88	
90	
81	
81	
90	
81	
96	
88	
75	
97	
93	
89	
88	
94	
82	
77	
105	
102	
87	
74	
87	
104	
96	
71	
75	
99	
75	
85	
84	
84	
73	
100	
75	
79	
67	
94	
88	
78	
101	
83	
81	
81	
83	
90	
88	
75	
63	
81	
104	
77	
85	
86	
82	
92	
92	
91	
86	
93	
83	
91	
79	
84	
79	
83	
77	
84	
92	
92	
75	
61	
72	
75	
82	
92	
90	
83	
80	
88	
86	
88	
92	
88	
84	
99	
93	
85	
78	
81	
88	
83	
76	
90	
88	
69	
79	
100	
84	
81	
72	
87	
84	
77	
109	
84	
79	
73	
95	
104	
82	
90	
85	
76	
90	
72	
79	
71	
78	
89	
75	
77	
94	
72	
77	
81	
69	
89	
84	
73	
100	
92	
68	
69	
84	
74	
100	
79	
75	
99	
90	
79	
82	
91	
78	
87	
73	
80	
74	
84	
72	
92	
81	
85	
79	
84	
88	
90	
86	
85	
89	
75	
67	
72	
89	
85	
82	
84	
93	
86	
70	
96	
87	
92	
84	
79	
84	
86	
91	
76	
86	
80	
67	
80	
82	
82	
96	
90	
86	
59	
76	
86	
91	
86	
71	
85	
78	
88	
92	
85	
83	
81	
85	
80	
73	
85	
87	
72	
75	
75	
83	
83	
80	
66	
69	
72	
71	
91	
79	
70	
88	
87	
74	
88	
85	
68	
88	
63	
73	
60	
79	
87	
80	
72	
79	
97	
72	
85	
80	
78	
85	
77	
61	
76	
83	
79	
88	
90	
74	
82	
95	
92	
85	
80	
78	
69	
78	
83	
87	
67	
95	
82	
76	
88	
104	
89	
69	
82	
75	
84	
88	
61	
66	
98	
81	
82	
74	
69	
67	
69	
89	
65	
86	
84	
80	
76	
84	
74	
88	
76	
87	
69	
71	
71	
81	
82	
80	
99	
75	
76	
63	
72	
75	
84	
63	
62	
89	
77	
77	
100	
69	
72	
80	
85	
80	
60	
70	
75	
91	
71	
83	
84	
88	
73	
95	
83	
69	
80	
77	
85	
81	
83	
95	
84	
74	
90	
81	
79	
76	
91	
82	
84	
69	
81	
78	
83	
89	
65	
76	
77	
71	
81	
70	
81	
82	
91	
73	
84	
83	
83	
74	
94	
94	
73	
84	
71	
66	
85	
64	
79	
92	
68	
74	
74	
66	
85	
76	
78	
77	
90	
99	
88	
88	
78	
72	
74	
79	
68	
79	
75	
60	
71	
79	
76	
88	
76	
79	
72	
84	
72	
70	
60	
81	
96	
77	
75	
82	
59	
74	
77	
91	
77	
85	
87	
77	
70	
82	
78	
94	
69	
96	
75	
83	
65	
85	
76	
86	
97	
76	
71	
69	
70	
81	
75	
81	
80	
63	
76	
79	
75	
75	
75	
69	
67	
73	
