#PicoHarp 300  Histogram Data			05/24/2022 06:23:34 PM
#channels per curve
31250
#display curve no.
0	
#memory block no.
0	
#ns/channel
0.0320	
#counts
0	
3	
3	
5	
2	
3	
1	
2	
1	
1	
3	
2	
2	
4	
1	
5	
1	
5	
0	
3	
4	
3	
2	
4	
5	
5	
2	
1	
1	
3	
3	
0	
1	
1	
4	
3	
3	
0	
2	
2	
1	
2	
5	
3	
3	
1	
1	
6	
2	
3	
5	
3	
0	
2	
3	
4	
3	
3	
3	
1	
3	
3	
2	
4	
0	
0	
2	
0	
1	
3	
3	
2	
2	
5	
4	
2	
3	
4	
3	
6	
1	
5	
4	
0	
4	
1	
1	
3	
0	
4	
3	
2	
1	
3	
2	
3	
1	
5	
3	
3	
2	
5	
2	
2	
3	
2	
4	
3	
2	
4	
2	
1	
2	
4	
4	
2	
4	
4	
2	
0	
3	
3	
2	
2	
3	
6	
3	
4	
2	
4	
2	
4	
0	
1	
2	
1	
0	
0	
3	
3	
6	
1	
3	
3	
1	
5	
3	
0	
5	
3	
2	
6	
3	
0	
1	
4	
5	
2	
2	
0	
3	
3	
2	
2	
5	
1	
3	
2	
0	
2	
3	
1	
1	
1	
2	
4	
1	
2	
2	
3	
2	
1	
1	
1	
2	
2	
4	
3	
3	
4	
2	
1	
1	
1	
1	
1	
4	
3	
2	
4	
0	
3	
4	
4	
0	
7	
3	
1	
1	
2	
4	
2	
0	
1	
6	
2	
2	
4	
5	
4	
4	
2	
1	
2	
2	
1	
2	
2	
3	
3	
4	
2	
0	
3	
1	
4	
1	
2	
2	
1	
3	
6	
2	
2	
0	
3	
3	
3	
3	
2	
2	
3	
1	
2	
2	
3	
0	
3	
4	
4	
3	
1	
4	
4	
1	
2	
2	
1	
1	
2	
1	
5	
4	
0	
2	
1	
4	
0	
2	
5	
4	
1	
2	
1	
2	
1	
1	
4	
1	
3	
1	
1	
5	
2	
5	
2	
3	
3	
1	
4	
2	
2	
1	
5	
2	
0	
0	
1	
0	
6	
4	
3	
2	
2	
3	
2	
2	
3	
1	
2	
2	
4	
2	
3	
5	
4	
2	
1	
0	
4	
1	
4	
3	
2	
1	
2	
0	
4	
1	
1	
4	
1	
2	
2	
0	
3	
3	
2	
4	
1	
3	
3	
3	
3	
2	
2	
4	
1	
3	
6	
3	
1	
2	
0	
3	
7	
0	
1	
3	
1	
1	
3	
5	
3	
7	
0	
4	
4	
0	
4	
1	
0	
2	
3	
3	
2	
2	
0	
1	
3	
4	
2	
3	
2	
0	
1	
2	
3	
1	
1	
3	
6	
3	
4	
1	
5	
1	
2	
3	
0	
6	
0	
4	
2	
4	
2	
0	
1	
4	
3	
1	
5	
3	
0	
2	
3	
3	
2	
1	
1	
2	
3	
3	
4	
1	
5	
2	
3	
3	
4	
4	
2	
4	
4	
2	
3	
2	
1	
1	
1	
3	
5	
2	
2	
2	
1	
4	
2	
3	
5	
3	
2	
5	
4	
3	
3	
1	
1	
2	
2	
3	
4	
1	
6	
0	
5	
3	
3	
5	
2	
3	
2	
5	
3	
2	
2	
3	
2	
4	
2	
5	
3	
4	
1	
1	
1	
2	
2	
4	
3	
2	
5	
7	
1	
2	
3	
1	
3	
3	
4	
1	
5	
1	
5	
4	
2	
0	
3	
1	
1	
3	
4	
2	
3	
3	
3	
5	
2	
2	
1	
2	
6	
1	
4	
4	
3	
2	
1	
3	
1	
2	
4	
4	
0	
2	
2	
3	
3	
5	
0	
5	
0	
1	
0	
3	
3	
2	
2	
1	
1	
1	
3	
3	
3	
5	
5	
5	
3	
4	
6	
4	
4	
1	
2	
2	
1	
1	
5	
3	
2	
3	
2	
2	
3	
1	
1	
2	
4	
3	
0	
0	
1	
2	
1	
5	
0	
5	
1	
3	
4	
2	
2	
2	
4	
5	
4	
3	
4	
2	
2	
2	
5	
1	
3	
1	
4	
6	
1	
1	
0	
2	
2	
1	
3	
0	
6	
2	
3	
2	
4	
4	
2	
3	
1	
3	
1	
1	
3	
0	
2	
2	
3	
5	
1	
1	
3	
2	
2	
4	
1	
2	
5	
1	
5	
1	
2	
2	
4	
2	
3	
3	
4	
1	
1	
0	
2	
2	
1	
0	
2	
4	
2	
1	
3	
1	
1	
1	
1	
3	
1	
1	
3	
2	
2	
7	
5	
1	
1	
1	
6	
4	
2	
3	
2	
3	
2	
3	
0	
1	
1	
3	
2	
5	
2	
2	
2	
1	
3	
5	
4	
5	
2	
2	
1	
3	
2	
0	
1	
2	
2	
3	
2	
7	
4	
1	
4	
3	
3	
1	
2	
2	
3	
2	
2	
3	
2	
2	
3	
2	
1	
2	
1	
1	
4	
2	
3	
3	
5	
3	
2	
2	
4	
1	
2	
3	
3	
2	
5	
3	
2	
3	
3	
4	
4	
3	
3	
2	
3	
1	
3	
2	
3	
3	
1	
5	
3	
1	
2	
3	
3	
0	
2	
5	
1	
1	
4	
2	
4	
5	
0	
2	
2	
2	
3	
6	
2	
1	
0	
3	
1	
3	
3	
2	
1	
1	
4	
1	
2	
2	
2	
1	
4	
3	
2	
7	
4	
6	
2	
1	
3	
3	
3	
2	
4	
2	
3	
3	
4	
3	
0	
2	
3	
1	
5	
5	
3	
2	
4	
2	
5	
1	
1	
0	
0	
6	
4	
2	
1	
1	
6	
1	
5	
5	
2	
4	
4	
3	
3	
1	
2	
3	
1	
4	
3	
1	
1	
2	
0	
2	
2	
2	
2	
3	
2	
5	
2	
5	
2	
0	
3	
3	
0	
3	
2	
2	
0	
2	
5	
0	
1	
2	
2	
4	
2	
5	
3	
0	
1	
3	
2	
3	
3	
2	
2	
1	
1	
5	
3	
2	
3	
2	
2	
3	
3	
7	
2	
1	
4	
0	
1	
3	
2	
1	
4	
4	
2	
2	
1	
1	
3	
3	
1	
4	
1	
3	
3	
3	
4	
1	
7	
0	
3	
2	
0	
2	
1	
1	
5	
2	
4	
0	
1	
2	
0	
5	
2	
4	
3	
3	
6	
6	
2	
8	
7	
7	
8	
9	
16	
10	
15	
12	
17	
20	
21	
37	
39	
45	
51	
66	
64	
75	
72	
109	
110	
133	
168	
161	
221	
243	
312	
305	
354	
391	
400	
428	
493	
513	
544	
560	
643	
701	
699	
656	
732	
742	
804	
808	
787	
826	
889	
834	
895	
917	
871	
935	
942	
881	
939	
906	
1000	
969	
934	
965	
1000	
935	
976	
935	
931	
913	
911	
925	
895	
903	
868	
889	
951	
869	
911	
908	
860	
930	
878	
870	
848	
860	
907	
928	
864	
837	
820	
877	
832	
861	
802	
812	
831	
834	
864	
871	
844	
862	
853	
788	
809	
805	
837	
820	
839	
826	
832	
823	
826	
805	
802	
784	
791	
783	
756	
733	
740	
762	
753	
800	
800	
800	
782	
748	
752	
754	
702	
734	
811	
746	
774	
740	
759	
764	
753	
817	
770	
751	
725	
720	
714	
773	
731	
677	
767	
707	
746	
730	
719	
705	
677	
731	
770	
758	
747	
695	
709	
739	
743	
667	
697	
701	
727	
722	
701	
685	
679	
672	
691	
708	
658	
711	
656	
669	
707	
691	
667	
695	
670	
660	
680	
665	
636	
681	
657	
643	
681	
666	
627	
691	
652	
641	
666	
642	
643	
620	
688	
663	
606	
658	
666	
628	
659	
608	
656	
599	
714	
653	
684	
628	
653	
619	
625	
635	
630	
652	
630	
619	
640	
606	
633	
606	
627	
642	
630	
615	
618	
594	
620	
586	
654	
616	
630	
619	
582	
614	
630	
608	
591	
605	
607	
615	
595	
622	
594	
627	
611	
617	
585	
557	
569	
548	
571	
617	
617	
579	
604	
602	
595	
600	
568	
575	
543	
560	
583	
586	
573	
566	
570	
601	
596	
592	
597	
593	
595	
566	
577	
564	
554	
555	
558	
581	
618	
609	
573	
577	
538	
585	
524	
563	
523	
617	
545	
509	
560	
541	
524	
576	
512	
570	
564	
535	
561	
575	
527	
539	
553	
550	
553	
563	
586	
578	
571	
569	
569	
551	
571	
528	
545	
588	
517	
575	
578	
583	
587	
546	
511	
535	
536	
528	
490	
573	
540	
542	
543	
536	
531	
519	
537	
526	
514	
543	
516	
554	
543	
524	
541	
547	
493	
538	
511	
522	
544	
538	
551	
543	
555	
573	
505	
518	
556	
505	
510	
505	
503	
483	
514	
500	
515	
515	
532	
501	
506	
543	
571	
505	
492	
535	
519	
499	
511	
503	
472	
467	
485	
450	
461	
477	
502	
439	
483	
510	
477	
509	
530	
509	
493	
476	
465	
530	
499	
518	
516	
502	
495	
512	
502	
461	
470	
450	
465	
527	
497	
492	
476	
491	
482	
454	
524	
457	
486	
499	
509	
460	
468	
484	
478	
508	
469	
478	
544	
510	
476	
503	
493	
457	
504	
455	
450	
463	
506	
486	
468	
473	
466	
488	
459	
439	
455	
453	
463	
465	
495	
428	
479	
467	
475	
500	
459	
488	
461	
479	
466	
444	
493	
482	
453	
479	
496	
463	
472	
428	
489	
441	
464	
461	
468	
480	
453	
428	
435	
434	
446	
443	
423	
452	
489	
423	
479	
483	
471	
451	
457	
450	
464	
441	
456	
454	
434	
427	
433	
440	
460	
443	
428	
449	
440	
410	
468	
409	
397	
455	
423	
467	
465	
454	
465	
424	
446	
444	
455	
422	
428	
425	
445	
459	
448	
481	
398	
413	
401	
433	
447	
418	
446	
431	
420	
465	
432	
413	
479	
422	
429	
434	
451	
418	
437	
450	
437	
428	
461	
413	
438	
421	
442	
425	
413	
439	
437	
446	
439	
402	
457	
427	
451	
438	
419	
414	
472	
412	
400	
407	
388	
402	
422	
439	
456	
432	
409	
414	
422	
443	
426	
441	
430	
457	
411	
401	
428	
440	
398	
434	
420	
454	
415	
429	
423	
409	
429	
402	
395	
425	
399	
389	
433	
426	
404	
374	
405	
422	
419	
393	
390	
384	
407	
435	
380	
405	
396	
396	
382	
391	
432	
360	
434	
387	
444	
396	
404	
400	
394	
418	
398	
406	
393	
418	
444	
379	
382	
413	
372	
387	
397	
425	
406	
389	
382	
386	
447	
432	
407	
396	
389	
404	
402	
366	
393	
406	
368	
394	
396	
364	
383	
359	
378	
389	
361	
429	
369	
400	
408	
399	
377	
380	
391	
391	
391	
447	
384	
424	
403	
391	
357	
408	
359	
392	
369	
399	
376	
399	
383	
357	
339	
380	
396	
361	
360	
396	
387	
392	
378	
369	
370	
368	
400	
372	
361	
402	
388	
390	
384	
358	
375	
373	
399	
329	
380	
371	
418	
377	
354	
388	
358	
387	
408	
371	
355	
379	
376	
386	
400	
376	
338	
352	
369	
390	
365	
397	
360	
405	
365	
386	
346	
361	
391	
347	
353	
340	
389	
366	
358	
366	
390	
349	
392	
367	
344	
380	
349	
371	
393	
356	
388	
357	
352	
369	
347	
359	
340	
365	
343	
368	
357	
348	
354	
391	
332	
351	
349	
414	
360	
344	
344	
360	
351	
338	
349	
370	
369	
373	
330	
365	
328	
352	
364	
340	
374	
326	
377	
315	
291	
339	
326	
322	
355	
369	
366	
351	
325	
320	
351	
337	
362	
343	
322	
344	
403	
309	
301	
341	
330	
337	
364	
323	
369	
300	
346	
333	
341	
328	
343	
362	
336	
360	
364	
321	
344	
349	
338	
331	
378	
345	
349	
349	
354	
330	
337	
328	
363	
355	
352	
329	
331	
343	
317	
338	
326	
327	
311	
346	
331	
349	
376	
306	
325	
332	
319	
333	
320	
339	
288	
352	
316	
344	
314	
357	
337	
312	
331	
308	
295	
348	
345	
344	
333	
328	
316	
374	
344	
289	
330	
346	
317	
312	
294	
300	
327	
304	
347	
324	
336	
310	
300	
320	
338	
319	
324	
320	
307	
299	
341	
308	
325	
331	
327	
300	
338	
330	
312	
320	
339	
335	
296	
333	
281	
299	
347	
347	
332	
328	
296	
310	
323	
331	
317	
303	
327	
304	
325	
301	
317	
298	
306	
312	
310	
340	
313	
291	
302	
332	
299	
319	
328	
306	
317	
344	
302	
299	
327	
296	
339	
326	
330	
290	
310	
312	
318	
306	
312	
339	
312	
332	
322	
287	
298	
353	
305	
311	
308	
316	
324	
310	
330	
312	
294	
298	
321	
297	
315	
300	
324	
279	
284	
306	
325	
309	
304	
307	
322	
327	
303	
320	
306	
292	
281	
291	
309	
302	
277	
296	
301	
305	
293	
285	
284	
304	
303	
285	
282	
283	
299	
282	
300	
292	
284	
287	
300	
318	
324	
303	
290	
308	
274	
281	
311	
312	
321	
310	
289	
315	
308	
314	
301	
282	
290	
301	
268	
308	
288	
273	
260	
298	
295	
310	
341	
293	
294	
308	
305	
287	
286	
293	
292	
332	
308	
298	
322	
298	
309	
293	
300	
331	
312	
281	
279	
284	
317	
300	
302	
350	
305	
290	
287	
304	
283	
290	
277	
263	
272	
279	
290	
315	
286	
282	
312	
301	
281	
295	
307	
282	
316	
280	
305	
279	
299	
300	
280	
273	
252	
282	
272	
304	
310	
263	
288	
285	
311	
279	
286	
279	
262	
265	
266	
286	
284	
273	
285	
288	
285	
282	
299	
252	
283	
272	
298	
279	
276	
304	
286	
295	
266	
273	
305	
283	
277	
265	
287	
274	
262	
272	
271	
262	
282	
305	
314	
267	
286	
281	
266	
264	
265	
279	
280	
243	
274	
267	
287	
269	
288	
275	
273	
291	
274	
283	
282	
267	
305	
271	
249	
295	
266	
257	
294	
264	
239	
248	
305	
273	
257	
305	
267	
252	
283	
272	
237	
279	
266	
248	
270	
252	
262	
288	
280	
270	
282	
285	
273	
280	
287	
268	
265	
270	
257	
259	
231	
256	
264	
267	
248	
284	
252	
279	
251	
277	
263	
256	
274	
250	
248	
282	
274	
270	
263	
278	
258	
257	
275	
277	
270	
264	
257	
265	
281	
271	
247	
293	
262	
249	
252	
269	
276	
278	
314	
254	
274	
276	
289	
257	
247	
237	
265	
279	
266	
250	
251	
231	
279	
270	
268	
240	
276	
249	
248	
274	
235	
263	
284	
260	
255	
272	
247	
260	
308	
248	
258	
275	
241	
270	
232	
238	
237	
250	
251	
248	
252	
243	
242	
259	
235	
244	
266	
244	
238	
222	
249	
256	
278	
275	
273	
256	
254	
231	
248	
258	
242	
255	
277	
269	
239	
263	
241	
281	
246	
220	
249	
255	
250	
260	
247	
235	
237	
251	
252	
266	
246	
276	
279	
230	
245	
247	
243	
255	
236	
231	
223	
235	
260	
224	
273	
255	
244	
224	
272	
261	
262	
265	
229	
255	
256	
241	
238	
243	
244	
260	
253	
227	
255	
237	
241	
281	
281	
266	
221	
214	
265	
248	
255	
229	
266	
221	
233	
255	
238	
237	
270	
251	
238	
222	
259	
243	
227	
236	
232	
249	
257	
209	
219	
248	
230	
268	
218	
246	
252	
243	
230	
278	
228	
250	
232	
235	
236	
226	
270	
241	
201	
259	
240	
235	
246	
265	
241	
225	
244	
220	
242	
258	
248	
246	
220	
223	
238	
266	
235	
221	
247	
258	
209	
230	
244	
257	
218	
244	
231	
265	
219	
259	
215	
220	
233	
251	
213	
267	
215	
244	
256	
245	
235	
248	
226	
212	
218	
255	
233	
224	
239	
218	
234	
229	
267	
257	
206	
227	
203	
239	
220	
243	
238	
250	
247	
202	
247	
239	
257	
207	
227	
206	
204	
238	
233	
247	
225	
215	
227	
212	
219	
221	
245	
221	
215	
221	
226	
215	
227	
227	
225	
250	
234	
242	
223	
227	
196	
234	
230	
243	
233	
253	
219	
212	
234	
238	
236	
218	
239	
223	
237	
234	
190	
247	
231	
222	
223	
232	
247	
245	
232	
216	
219	
206	
229	
227	
207	
226	
236	
223	
213	
256	
214	
199	
212	
233	
223	
240	
217	
235	
205	
218	
222	
233	
198	
219	
246	
238	
202	
209	
200	
216	
208	
226	
210	
231	
196	
230	
225	
221	
200	
207	
212	
209	
213	
219	
243	
206	
212	
220	
230	
210	
212	
229	
205	
232	
218	
206	
225	
210	
210	
233	
202	
218	
203	
217	
215	
214	
202	
203	
223	
202	
198	
207	
204	
246	
219	
209	
209	
190	
186	
200	
214	
228	
205	
200	
223	
196	
224	
246	
223	
215	
174	
224	
184	
202	
209	
202	
200	
206	
168	
214	
226	
231	
226	
180	
211	
221	
206	
207	
232	
217	
204	
221	
217	
232	
192	
195	
216	
173	
201	
192	
201	
221	
203	
215	
195	
182	
210	
206	
187	
220	
223	
236	
190	
203	
189	
215	
192	
225	
182	
195	
194	
191	
192	
219	
220	
239	
213	
197	
228	
213	
213	
201	
192	
206	
201	
210	
207	
217	
213	
222	
204	
191	
213	
202	
209	
224	
217	
226	
208	
194	
202	
206	
213	
199	
213	
210	
215	
198	
214	
222	
215	
201	
213	
213	
201	
204	
218	
208	
216	
220	
213	
196	
205	
197	
191	
198	
223	
197	
197	
224	
211	
215	
208	
190	
222	
215	
181	
194	
189	
225	
199	
190	
197	
201	
212	
224	
181	
194	
218	
214	
208	
194	
224	
207	
176	
196	
208	
204	
207	
228	
182	
206	
181	
194	
189	
203	
190	
210	
206	
209	
198	
186	
187	
213	
193	
175	
209	
184	
196	
209	
208	
186	
171	
212	
199	
192	
180	
193	
207	
222	
183	
199	
199	
191	
193	
188	
222	
197	
196	
182	
198	
184	
198	
185	
212	
193	
176	
198	
201	
193	
188	
198	
202	
200	
182	
192	
207	
187	
185	
184	
170	
180	
222	
186	
177	
182	
175	
178	
180	
183	
208	
196	
178	
189	
188	
189	
160	
207	
215	
210	
197	
167	
191	
185	
197	
214	
184	
184	
206	
174	
212	
221	
202	
195	
197	
177	
187	
187	
193	
194	
148	
192	
189	
182	
194	
186	
174	
173	
190	
184	
170	
194	
183	
186	
178	
198	
190	
173	
183	
177	
174	
161	
184	
192	
169	
190	
205	
198	
186	
183	
185	
189	
200	
173	
208	
187	
201	
177	
194	
194	
209	
186	
189	
173	
193	
195	
168	
184	
180	
183	
223	
176	
185	
190	
171	
202	
174	
175	
182	
194	
190	
187	
173	
173	
177	
180	
183	
167	
185	
157	
187	
173	
173	
193	
183	
178	
170	
198	
182	
188	
171	
184	
156	
161	
191	
166	
182	
194	
174	
177	
198	
177	
164	
207	
213	
188	
175	
187	
178	
168	
168	
183	
183	
183	
185	
172	
178	
180	
202	
151	
173	
166	
183	
174	
191	
208	
177	
183	
183	
183	
174	
176	
171	
179	
172	
192	
174	
179	
186	
183	
176	
187	
176	
156	
170	
179	
194	
190	
153	
151	
177	
164	
159	
162	
161	
162	
186	
189	
185	
182	
178	
179	
186	
170	
173	
160	
158	
158	
157	
196	
171	
195	
185	
170	
182	
166	
189	
174	
189	
187	
181	
164	
173	
170	
210	
186	
190	
190	
181	
189	
170	
161	
182	
155	
170	
176	
182	
147	
160	
198	
196	
185	
167	
156	
165	
185	
152	
149	
172	
176	
169	
169	
179	
147	
149	
164	
167	
185	
169	
166	
158	
181	
154	
168	
174	
197	
143	
155	
169	
170	
166	
190	
169	
168	
198	
174	
156	
165	
193	
158	
170	
192	
189	
173	
141	
175	
191	
149	
171	
162	
161	
169	
178	
151	
158	
157	
173	
182	
157	
173	
158	
157	
138	
146	
187	
164	
166	
145	
149	
165	
172	
153	
167	
179	
150	
146	
164	
181	
175	
191	
140	
193	
162	
148	
160	
173	
157	
153	
138	
169	
159	
149	
179	
159	
153	
173	
146	
158	
140	
156	
161	
151	
174	
180	
166	
169	
162	
167	
190	
151	
172	
161	
167	
165	
181	
159	
166	
184	
143	
157	
173	
153	
176	
163	
170	
184	
172	
178	
170	
168	
157	
144	
164	
158	
150	
137	
152	
153	
179	
162	
159	
174	
167	
157	
157	
153	
165	
146	
177	
150	
150	
144	
143	
170	
161	
159	
190	
181	
146	
130	
154	
160	
157	
152	
151	
162	
178	
162	
176	
180	
170	
157	
141	
147	
157	
140	
178	
138	
142	
151	
157	
147	
160	
155	
145	
164	
156	
151	
157	
124	
142	
169	
157	
149	
158	
141	
176	
177	
155	
155	
171	
141	
166	
153	
160	
151	
164	
164	
182	
158	
149	
132	
159	
152	
155	
160	
151	
156	
174	
151	
139	
155	
130	
137	
163	
149	
159	
142	
165	
164	
166	
149	
155	
151	
151	
151	
152	
171	
151	
153	
145	
143	
153	
177	
144	
144	
159	
125	
149	
154	
149	
139	
150	
163	
136	
139	
163	
165	
133	
171	
148	
190	
151	
127	
164	
153	
134	
145	
141	
143	
134	
143	
151	
172	
142	
161	
150	
167	
157	
142	
144	
133	
136	
168	
160	
151	
161	
131	
153	
154	
127	
147	
131	
145	
154	
145	
137	
149	
137	
150	
159	
148	
143	
165	
138	
149	
135	
145	
144	
146	
159	
150	
159	
159	
142	
132	
144	
151	
153	
159	
139	
158	
151	
163	
128	
141	
156	
154	
153	
133	
152	
147	
135	
155	
133	
133	
159	
161	
141	
145	
146	
173	
147	
146	
140	
163	
150	
143	
156	
160	
135	
134	
141	
161	
137	
122	
140	
160	
164	
129	
143	
151	
138	
154	
132	
151	
147	
158	
133	
122	
139	
149	
172	
149	
132	
152	
173	
152	
140	
146	
146	
159	
157	
130	
149	
139	
154	
144	
150	
143	
149	
144	
133	
154	
142	
152	
151	
155	
126	
146	
144	
149	
129	
141	
137	
136	
147	
150	
134	
156	
132	
129	
147	
128	
139	
160	
163	
133	
139	
140	
130	
170	
144	
146	
142	
138	
147	
132	
128	
145	
149	
144	
152	
128	
129	
133	
153	
136	
131	
141	
134	
132	
140	
169	
139	
149	
135	
125	
138	
150	
139	
144	
137	
137	
143	
155	
158	
129	
132	
144	
125	
161	
127	
150	
164	
142	
124	
125	
146	
153	
153	
128	
137	
154	
119	
158	
143	
146	
135	
151	
133	
146	
153	
154	
146	
157	
143	
133	
142	
139	
145	
140	
135	
127	
142	
135	
156	
121	
147	
135	
116	
133	
133	
153	
115	
145	
138	
144	
147	
126	
149	
140	
147	
154	
133	
151	
121	
147	
149	
142	
148	
156	
140	
145	
152	
142	
147	
149	
150	
119	
149	
134	
134	
124	
147	
131	
136	
140	
152	
129	
133	
125	
146	
125	
118	
129	
132	
146	
122	
147	
134	
135	
145	
109	
125	
137	
123	
142	
131	
145	
157	
137	
137	
122	
140	
128	
130	
123	
127	
146	
125	
145	
139	
139	
102	
144	
120	
134	
152	
138	
128	
122	
117	
137	
140	
123	
135	
157	
121	
126	
137	
154	
142	
121	
145	
136	
142	
125	
114	
127	
142	
136	
130	
125	
131	
132	
132	
143	
166	
118	
128	
129	
139	
140	
149	
117	
129	
111	
132	
132	
148	
105	
129	
117	
131	
135	
133	
154	
118	
136	
126	
137	
117	
143	
121	
116	
118	
133	
130	
144	
117	
126	
146	
129	
145	
122	
117	
146	
145	
129	
132	
144	
118	
106	
150	
139	
126	
126	
157	
124	
121	
117	
117	
123	
124	
132	
147	
136	
140	
121	
145	
114	
119	
144	
130	
123	
112	
130	
142	
133	
129	
137	
121	
131	
131	
117	
114	
118	
124	
125	
137	
119	
140	
137	
126	
98	
147	
126	
133	
130	
127	
139	
122	
131	
131	
127	
111	
116	
138	
120	
125	
125	
114	
127	
119	
130	
139	
141	
147	
137	
118	
117	
145	
144	
125	
116	
128	
129	
140	
131	
126	
119	
130	
118	
127	
130	
152	
129	
124	
140	
136	
117	
111	
137	
138	
142	
124	
129	
130	
135	
136	
96	
127	
123	
108	
127	
115	
144	
107	
125	
112	
123	
118	
133	
145	
123	
137	
119	
105	
135	
130	
112	
125	
150	
136	
133	
112	
128	
121	
121	
134	
123	
123	
117	
133	
136	
104	
103	
116	
124	
119	
123	
118	
130	
138	
109	
132	
102	
100	
125	
118	
125	
126	
133	
125	
122	
103	
135	
143	
124	
126	
118	
115	
110	
136	
111	
107	
132	
149	
119	
117	
127	
112	
117	
122	
118	
120	
118	
137	
100	
124	
130	
122	
107	
115	
126	
124	
113	
136	
112	
118	
128	
111	
128	
114	
116	
106	
119	
117	
115	
123	
135	
127	
136	
113	
115	
119	
121	
114	
132	
104	
98	
106	
123	
128	
113	
132	
117	
102	
133	
111	
116	
114	
116	
110	
134	
122	
136	
108	
114	
132	
119	
129	
115	
110	
128	
105	
116	
124	
102	
115	
124	
121	
108	
115	
124	
116	
126	
98	
112	
106	
110	
120	
117	
125	
96	
109	
94	
105	
121	
105	
98	
120	
102	
106	
121	
114	
121	
128	
112	
113	
100	
114	
122	
118	
123	
130	
115	
114	
121	
109	
130	
118	
122	
133	
132	
120	
116	
121	
147	
110	
102	
114	
99	
120	
130	
114	
112	
125	
116	
114	
140	
128	
124	
116	
122	
124	
138	
110	
118	
110	
117	
116	
113	
127	
120	
142	
123	
110	
103	
117	
108	
138	
124	
116	
112	
97	
94	
122	
111	
98	
132	
124	
118	
112	
127	
103	
100	
155	
130	
123	
90	
110	
109	
120	
137	
107	
138	
107	
129	
95	
131	
112	
126	
124	
102	
107	
102	
101	
134	
136	
95	
98	
107	
119	
106	
101	
121	
124	
113	
114	
120	
106	
113	
145	
122	
119	
110	
116	
96	
110	
132	
125	
103	
105	
107	
104	
104	
103	
122	
108	
94	
118	
121	
129	
124	
117	
123	
106	
103	
123	
106	
115	
134	
108	
101	
105	
121	
129	
125	
105	
107	
107	
108	
109	
106	
124	
112	
99	
116	
113	
108	
103	
111	
114	
99	
103	
120	
97	
103	
98	
122	
117	
100	
115	
115	
116	
124	
131	
96	
101	
120	
104	
120	
104	
136	
105	
109	
124	
104	
130	
98	
109	
101	
102	
115	
116	
104	
124	
89	
98	
102	
105	
107	
98	
96	
108	
122	
110	
111	
106	
133	
110	
111	
119	
105	
108	
101	
111	
112	
103	
109	
106	
101	
102	
135	
100	
114	
126	
115	
93	
105	
104	
90	
93	
130	
103	
119	
116	
105	
95	
120	
103	
123	
98	
110	
105	
108	
103	
104	
105	
105	
101	
90	
121	
107	
124	
121	
108	
120	
105	
121	
87	
107	
117	
112	
103	
114	
99	
108	
108	
112	
108	
106	
97	
94	
108	
101	
102	
99	
108	
114	
113	
94	
103	
107	
92	
99	
111	
89	
100	
107	
100	
112	
116	
118	
112	
111	
87	
104	
98	
86	
99	
101	
121	
104	
94	
109	
112	
112	
116	
95	
108	
106	
102	
102	
115	
116	
86	
110	
112	
110	
102	
96	
115	
118	
93	
93	
106	
119	
112	
106	
108	
102	
102	
98	
112	
103	
110	
109	
102	
91	
99	
126	
121	
98	
104	
96	
99	
116	
93	
99	
89	
104	
95	
108	
108	
120	
121	
122	
105	
95	
101	
99	
100	
97	
111	
87	
118	
114	
86	
91	
86	
113	
106	
104	
105	
110	
81	
73	
97	
102	
86	
91	
109	
91	
116	
107	
105	
101	
99	
97	
84	
118	
109	
97	
110	
127	
85	
105	
113	
106	
117	
101	
97	
103	
106	
105	
106	
95	
103	
95	
102	
113	
83	
100	
80	
79	
102	
83	
100	
111	
92	
94	
103	
94	
95	
86	
92	
89	
78	
99	
107	
107	
107	
111	
98	
95	
100	
98	
91	
115	
101	
103	
93	
111	
113	
113	
104	
101	
94	
87	
80	
104	
98	
92	
93	
109	
99	
93	
88	
104	
111	
93	
92	
100	
99	
85	
93	
96	
94	
81	
97	
121	
95	
95	
108	
82	
101	
93	
100	
86	
111	
84	
114	
109	
110	
99	
116	
105	
101	
103	
106	
105	
123	
106	
114	
96	
85	
95	
93	
93	
101	
94	
95	
78	
105	
103	
102	
92	
109	
93	
92	
105	
93	
106	
99	
93	
114	
104	
96	
102	
96	
95	
98	
88	
97	
93	
101	
106	
104	
105	
92	
115	
89	
101	
84	
89	
103	
112	
120	
76	
97	
107	
90	
85	
84	
108	
101	
113	
121	
88	
93	
95	
95	
96	
104	
93	
94	
114	
89	
95	
102	
85	
103	
94	
106	
94	
85	
87	
92	
108	
102	
88	
91	
90	
110	
91	
97	
79	
86	
90	
100	
90	
86	
103	
94	
103	
105	
91	
89	
95	
98	
116	
86	
102	
109	
101	
101	
75	
79	
101	
87	
95	
96	
96	
96	
102	
96	
93	
110	
101	
82	
93	
91	
93	
94	
92	
101	
80	
92	
102	
90	
100	
96	
107	
93	
89	
76	
82	
103	
83	
81	
98	
92	
99	
93	
75	
83	
83	
75	
102	
82	
83	
96	
80	
93	
97	
92	
106	
88	
95	
83	
104	
83	
84	
107	
93	
97	
84	
101	
99	
89	
101	
96	
111	
100	
93	
103	
91	
95	
82	
93	
105	
95	
91	
111	
82	
78	
105	
92	
100	
97	
78	
85	
85	
96	
85	
100	
89	
105	
103	
117	
80	
90	
71	
92	
82	
94	
99	
96	
90	
84	
99	
89	
80	
88	
105	
86	
93	
103	
105	
101	
93	
78	
93	
82	
96	
100	
96	
96	
86	
107	
80	
91	
87	
83	
84	
90	
88	
72	
85	
102	
83	
100	
98	
108	
89	
85	
107	
92	
88	
86	
93	
91	
80	
84	
86	
101	
93	
98	
97	
97	
101	
77	
80	
98	
90	
77	
92	
96	
110	
72	
76	
95	
88	
97	
105	
76	
87	
84	
91	
102	
89	
102	
76	
92	
83	
99	
97	
94	
107	
85	
104	
111	
85	
86	
87	
87	
71	
77	
97	
88	
80	
93	
87	
82	
103	
98	
102	
96	
93	
85	
86	
99	
89	
81	
91	
72	
81	
98	
86	
74	
92	
88	
78	
86	
80	
79	
94	
106	
91	
96	
73	
98	
115	
105	
70	
99	
81	
86	
79	
102	
93	
86	
72	
87	
93	
70	
86	
86	
85	
77	
75	
87	
111	
89	
83	
96	
92	
80	
71	
102	
79	
94	
89	
75	
90	
83	
83	
75	
73	
91	
89	
77	
101	
95	
90	
80	
87	
102	
86	
105	
91	
67	
97	
106	
79	
84	
104	
96	
94	
88	
77	
70	
86	
82	
83	
87	
85	
86	
97	
95	
75	
75	
88	
79	
85	
85	
87	
91	
95	
88	
90	
87	
73	
95	
92	
85	
93	
95	
90	
93	
83	
69	
73	
72	
87	
75	
68	
84	
93	
82	
69	
88	
74	
59	
91	
91	
97	
66	
83	
83	
72	
73	
97	
96	
79	
81	
79	
79	
81	
75	
99	
82	
77	
87	
94	
88	
84	
86	
78	
84	
79	
89	
83	
81	
94	
81	
85	
92	
82	
90	
87	
90	
83	
79	
91	
81	
80	
88	
74	
84	
87	
74	
82	
75	
94	
76	
97	
95	
77	
84	
76	
79	
96	
89	
85	
82	
83	
88	
87	
69	
67	
89	
80	
82	
72	
81	
93	
68	
86	
80	
83	
77	
79	
80	
85	
89	
95	
89	
98	
83	
87	
89	
76	
67	
88	
78	
79	
89	
79	
83	
70	
85	
68	
83	
72	
76	
81	
74	
78	
88	
98	
75	
66	
88	
69	
80	
87	
84	
71	
85	
91	
86	
78	
88	
78	
73	
90	
69	
87	
65	
90	
76	
82	
81	
74	
81	
79	
83	
75	
87	
76	
81	
87	
95	
72	
85	
98	
82	
80	
82	
72	
93	
88	
80	
87	
79	
78	
68	
83	
101	
84	
76	
73	
78	
85	
89	
74	
71	
77	
90	
81	
82	
68	
79	
86	
73	
77	
87	
88	
72	
90	
72	
90	
72	
85	
82	
73	
80	
87	
82	
92	
77	
98	
68	
80	
81	
68	
70	
100	
73	
79	
84	
82	
74	
85	
82	
80	
67	
73	
66	
83	
77	
78	
85	
86	
72	
80	
65	
69	
76	
70	
75	
76	
76	
72	
78	
83	
79	
93	
84	
82	
83	
65	
99	
83	
85	
73	
77	
78	
70	
82	
80	
71	
69	
93	
74	
93	
79	
93	
75	
88	
74	
80	
74	
72	
65	
83	
100	
78	
71	
76	
83	
79	
68	
66	
78	
74	
78	
67	
93	
80	
73	
64	
72	
79	
64	
71	
74	
71	
77	
67	
87	
85	
83	
70	
92	
86	
83	
84	
75	
80	
82	
79	
66	
68	
72	
85	
80	
78	
72	
93	
82	
46	
70	
81	
65	
78	
78	
78	
80	
91	
83	
62	
80	
91	
79	
76	
82	
77	
72	
77	
81	
75	
84	
67	
80	
73	
72	
72	
77	
71	
73	
84	
72	
76	
82	
83	
86	
89	
71	
68	
72	
68	
89	
81	
81	
98	
84	
66	
78	
79	
66	
69	
72	
74	
83	
73	
63	
99	
80	
82	
71	
73	
79	
82	
70	
78	
70	
80	
65	
79	
69	
75	
72	
70	
79	
81	
101	
84	
84	
67	
68	
70	
80	
76	
72	
75	
79	
67	
80	
79	
74	
69	
62	
77	
86	
72	
72	
62	
62	
75	
79	
71	
75	
68	
75	
82	
96	
74	
91	
81	
71	
71	
72	
69	
73	
77	
72	
76	
84	
74	
63	
75	
74	
76	
70	
78	
74	
72	
84	
63	
65	
62	
70	
65	
75	
72	
80	
77	
77	
65	
77	
76	
58	
75	
68	
84	
86	
86	
63	
73	
81	
70	
77	
65	
70	
80	
84	
60	
62	
69	
66	
82	
76	
84	
64	
75	
75	
70	
73	
85	
61	
81	
84	
90	
69	
87	
68	
77	
76	
84	
47	
93	
78	
66	
71	
54	
75	
70	
85	
82	
66	
62	
71	
69	
84	
74	
83	
71	
79	
69	
69	
70	
74	
80	
70	
66	
81	
68	
64	
62	
76	
78	
67	
76	
82	
83	
76	
76	
77	
69	
78	
83	
82	
63	
78	
57	
80	
80	
87	
58	
82	
79	
79	
84	
65	
74	
70	
64	
69	
73	
65	
60	
73	
69	
86	
73	
75	
82	
73	
72	
73	
74	
76	
67	
65	
91	
88	
58	
78	
75	
59	
73	
73	
87	
57	
71	
79	
81	
63	
67	
67	
70	
75	
69	
69	
85	
76	
72	
82	
58	
75	
68	
80	
63	
57	
65	
83	
75	
62	
98	
65	
77	
61	
91	
79	
71	
71	
73	
79	
65	
61	
84	
105	
64	
70	
75	
74	
76	
58	
70	
61	
74	
68	
62	
70	
68	
71	
93	
62	
66	
74	
76	
64	
56	
59	
77	
72	
84	
71	
72	
67	
66	
75	
72	
77	
77	
51	
53	
77	
59	
79	
82	
47	
70	
75	
76	
67	
80	
60	
58	
62	
61	
79	
79	
61	
71	
68	
71	
77	
83	
68	
66	
68	
82	
60	
55	
54	
80	
70	
89	
89	
60	
55	
59	
78	
68	
78	
72	
68	
87	
65	
68	
56	
67	
64	
79	
76	
74	
69	
66	
75	
70	
62	
64	
62	
91	
69	
84	
64	
58	
69	
61	
62	
75	
76	
66	
84	
61	
64	
70	
60	
82	
75	
81	
75	
72	
67	
73	
68	
61	
61	
61	
74	
56	
60	
58	
62	
72	
53	
75	
69	
72	
71	
76	
70	
64	
55	
85	
61	
80	
79	
85	
70	
77	
63	
83	
75	
61	
71	
67	
89	
68	
58	
59	
67	
65	
61	
65	
65	
61	
81	
73	
62	
76	
81	
70	
78	
61	
67	
74	
65	
64	
55	
61	
76	
60	
72	
64	
57	
75	
65	
71	
73	
67	
71	
58	
71	
63	
62	
70	
67	
63	
62	
75	
66	
56	
62	
60	
63	
70	
66	
62	
61	
58	
72	
63	
59	
69	
69	
68	
62	
72	
50	
61	
81	
63	
75	
64	
68	
59	
68	
71	
70	
82	
48	
65	
55	
69	
71	
68	
74	
63	
61	
70	
59	
61	
54	
72	
53	
71	
54	
57	
68	
60	
50	
72	
81	
60	
60	
63	
60	
71	
62	
64	
70	
88	
61	
48	
64	
51	
67	
72	
67	
62	
84	
63	
61	
80	
51	
51	
65	
69	
55	
77	
54	
61	
64	
71	
65	
62	
57	
48	
63	
66	
60	
54	
72	
57	
80	
61	
66	
58	
60	
65	
58	
58	
70	
78	
48	
48	
76	
66	
69	
63	
62	
85	
67	
72	
65	
63	
77	
52	
55	
66	
55	
48	
64	
58	
55	
63	
76	
64	
78	
71	
53	
47	
65	
64	
70	
82	
46	
71	
71	
67	
58	
59	
62	
60	
60	
58	
52	
73	
74	
59	
59	
68	
77	
65	
75	
75	
62	
62	
55	
61	
71	
83	
56	
61	
63	
66	
82	
61	
55	
71	
68	
72	
68	
62	
72	
74	
58	
67	
66	
72	
57	
67	
51	
61	
76	
56	
64	
67	
59	
68	
44	
70	
65	
62	
68	
64	
56	
54	
66	
70	
69	
54	
66	
58	
74	
54	
66	
54	
66	
64	
70	
63	
63	
50	
68	
59	
57	
70	
68	
73	
61	
55	
58	
56	
64	
68	
57	
45	
55	
63	
62	
69	
67	
58	
62	
58	
63	
52	
72	
66	
67	
58	
66	
76	
67	
60	
69	
75	
53	
48	
58	
58	
56	
75	
73	
80	
66	
66	
55	
69	
58	
63	
62	
67	
47	
58	
62	
48	
60	
50	
47	
56	
62	
50	
60	
55	
57	
74	
55	
71	
60	
57	
69	
63	
62	
59	
63	
63	
68	
64	
56	
48	
58	
67	
61	
62	
67	
68	
59	
69	
57	
61	
67	
50	
64	
63	
55	
61	
61	
54	
45	
68	
66	
48	
49	
46	
74	
47	
61	
62	
56	
60	
61	
62	
78	
63	
62	
56	
67	
67	
71	
63	
63	
52	
59	
64	
50	
58	
70	
58	
64	
56	
64	
56	
61	
60	
59	
61	
74	
57	
53	
62	
59	
54	
52	
55	
60	
52	
59	
76	
63	
64	
67	
54	
65	
55	
61	
66	
55	
57	
51	
39	
55	
62	
51	
62	
64	
69	
56	
43	
49	
64	
56	
56	
63	
62	
49	
62	
78	
49	
51	
63	
60	
58	
55	
53	
62	
39	
72	
76	
61	
67	
61	
54	
62	
56	
60	
65	
63	
57	
54	
71	
62	
59	
57	
52	
50	
56	
57	
59	
56	
66	
60	
56	
60	
64	
55	
62	
57	
42	
65	
63	
63	
66	
57	
49	
54	
67	
74	
70	
55	
70	
61	
57	
67	
62	
67	
59	
61	
63	
59	
57	
61	
55	
53	
40	
54	
52	
52	
54	
57	
54	
68	
64	
50	
55	
55	
58	
50	
49	
72	
48	
58	
50	
51	
51	
57	
44	
59	
62	
55	
65	
57	
58	
59	
46	
56	
64	
52	
55	
69	
65	
50	
71	
62	
59	
64	
53	
49	
63	
58	
54	
44	
55	
67	
62	
61	
62	
67	
49	
60	
54	
71	
55	
51	
68	
60	
64	
61	
44	
63	
66	
57	
55	
59	
60	
58	
47	
64	
44	
50	
56	
68	
65	
53	
54	
52	
58	
62	
65	
42	
66	
67	
53	
46	
61	
54	
58	
54	
51	
49	
50	
56	
58	
58	
66	
60	
56	
58	
43	
61	
62	
54	
65	
71	
60	
68	
60	
50	
49	
52	
47	
63	
48	
67	
54	
55	
61	
41	
51	
55	
63	
60	
49	
41	
50	
48	
64	
55	
50	
58	
52	
47	
53	
54	
51	
61	
50	
56	
65	
57	
48	
55	
56	
63	
51	
54	
57	
58	
54	
50	
44	
70	
47	
52	
58	
58	
51	
64	
63	
51	
47	
48	
73	
54	
48	
44	
52	
53	
60	
58	
52	
56	
47	
53	
64	
43	
59	
42	
53	
60	
56	
62	
48	
55	
53	
62	
56	
46	
43	
53	
42	
55	
50	
63	
56	
57	
59	
51	
59	
54	
46	
44	
40	
50	
58	
57	
51	
59	
53	
59	
49	
57	
62	
56	
63	
57	
60	
59	
53	
54	
53	
58	
55	
53	
49	
45	
54	
61	
81	
56	
72	
48	
55	
59	
56	
43	
59	
60	
57	
52	
53	
56	
51	
47	
50	
55	
49	
62	
55	
58	
41	
42	
55	
53	
50	
46	
40	
41	
64	
45	
51	
58	
63	
56	
46	
66	
52	
56	
53	
67	
54	
52	
50	
58	
45	
48	
49	
50	
62	
48	
59	
50	
49	
55	
59	
49	
53	
53	
53	
55	
46	
71	
56	
55	
48	
53	
44	
55	
48	
48	
45	
45	
43	
41	
59	
48	
53	
58	
62	
43	
46	
55	
48	
56	
57	
58	
49	
47	
52	
50	
56	
49	
49	
56	
58	
42	
50	
56	
58	
86	
51	
64	
41	
55	
48	
64	
46	
61	
48	
61	
55	
52	
54	
64	
67	
46	
58	
50	
51	
45	
51	
59	
53	
45	
56	
58	
61	
52	
61	
60	
47	
45	
48	
47	
56	
60	
56	
68	
53	
56	
58	
47	
67	
50	
54	
60	
46	
63	
54	
60	
51	
53	
40	
54	
47	
52	
51	
63	
43	
38	
42	
43	
45	
55	
50	
57	
47	
57	
61	
42	
49	
48	
65	
56	
53	
57	
51	
49	
61	
50	
58	
50	
50	
43	
43	
51	
59	
48	
39	
54	
34	
54	
47	
48	
57	
59	
50	
52	
54	
54	
56	
40	
40	
54	
51	
48	
45	
52	
50	
53	
50	
53	
52	
53	
30	
55	
46	
50	
55	
47	
53	
50	
46	
67	
54	
57	
57	
52	
45	
39	
48	
46	
55	
49	
44	
62	
43	
40	
55	
47	
46	
40	
48	
45	
48	
58	
56	
46	
52	
69	
41	
51	
50	
45	
42	
55	
56	
49	
60	
54	
45	
52	
63	
44	
43	
54	
48	
34	
52	
56	
47	
56	
46	
49	
45	
52	
45	
62	
50	
52	
48	
52	
50	
70	
46	
55	
58	
53	
48	
58	
41	
47	
50	
53	
54	
43	
49	
52	
49	
51	
45	
60	
60	
58	
51	
54	
59	
47	
43	
42	
55	
56	
47	
35	
50	
40	
43	
59	
49	
45	
59	
49	
41	
50	
55	
53	
49	
44	
49	
48	
56	
54	
48	
69	
51	
46	
57	
44	
57	
50	
42	
55	
51	
52	
46	
61	
37	
44	
53	
33	
58	
58	
55	
42	
52	
54	
43	
52	
49	
48	
45	
47	
39	
47	
48	
52	
42	
47	
46	
39	
45	
44	
51	
49	
52	
63	
42	
49	
43	
48	
48	
45	
47	
50	
39	
51	
54	
46	
50	
56	
45	
48	
48	
42	
39	
49	
43	
54	
46	
70	
51	
58	
60	
53	
46	
37	
55	
57	
50	
47	
42	
63	
38	
46	
40	
52	
49	
51	
47	
57	
53	
64	
49	
44	
35	
46	
52	
59	
54	
52	
57	
44	
48	
48	
42	
44	
46	
63	
44	
43	
37	
59	
44	
51	
53	
63	
57	
48	
68	
45	
61	
53	
42	
54	
48	
51	
38	
56	
53	
43	
52	
44	
48	
51	
45	
51	
38	
57	
39	
42	
51	
39	
64	
52	
52	
51	
44	
44	
60	
61	
36	
52	
43	
53	
55	
37	
38	
51	
49	
54	
56	
57	
54	
46	
54	
51	
58	
41	
48	
35	
42	
47	
54	
50	
53	
55	
43	
45	
55	
