#PicoHarp 300  Histogram Data			05/25/2022 09:39:01 AM
#channels per curve
31250
#display curve no.
0	
#memory block no.
0	
#ns/channel
0.0320	
#counts
6	
2	
4	
5	
3	
5	
8	
4	
5	
3	
8	
6	
4	
4	
3	
0	
2	
3	
4	
3	
4	
4	
2	
6	
2	
6	
5	
5	
2	
3	
7	
3	
5	
4	
8	
7	
5	
5	
6	
3	
2	
5	
7	
3	
3	
2	
6	
6	
5	
6	
7	
4	
4	
3	
2	
2	
4	
6	
5	
10	
4	
7	
4	
1	
5	
2	
4	
2	
3	
0	
3	
4	
6	
2	
8	
2	
7	
7	
7	
4	
2	
6	
5	
4	
6	
1	
4	
5	
4	
10	
2	
2	
3	
4	
4	
3	
2	
5	
6	
3	
4	
7	
7	
5	
5	
7	
3	
7	
3	
5	
4	
6	
6	
5	
6	
7	
5	
4	
3	
5	
3	
7	
3	
5	
5	
7	
4	
2	
6	
4	
4	
4	
4	
4	
4	
4	
7	
1	
3	
3	
3	
2	
5	
4	
4	
7	
3	
4	
1	
2	
2	
6	
2	
2	
1	
8	
4	
3	
4	
4	
1	
5	
5	
3	
4	
5	
3	
2	
4	
1	
5	
3	
5	
1	
5	
2	
1	
5	
2	
7	
4	
1	
6	
5	
1	
6	
5	
2	
1	
7	
2	
3	
1	
4	
7	
5	
1	
6	
5	
6	
3	
3	
2	
4	
2	
6	
5	
1	
7	
5	
5	
4	
5	
4	
2	
2	
3	
7	
4	
8	
2	
4	
1	
2	
4	
6	
9	
4	
1	
3	
8	
5	
3	
4	
5	
4	
4	
5	
4	
7	
4	
6	
4	
1	
5	
4	
4	
3	
1	
5	
1	
4	
6	
5	
1	
5	
3	
4	
7	
3	
4	
4	
8	
2	
5	
2	
6	
3	
8	
4	
5	
5	
1	
10	
4	
2	
6	
4	
5	
0	
3	
3	
4	
9	
1	
4	
2	
2	
3	
11	
1	
4	
4	
4	
2	
3	
3	
2	
2	
3	
6	
2	
5	
3	
6	
0	
1	
5	
5	
3	
3	
5	
4	
2	
6	
1	
6	
1	
7	
2	
6	
8	
4	
6	
11	
5	
6	
4	
3	
3	
3	
2	
3	
5	
5	
6	
3	
4	
3	
0	
2	
4	
3	
4	
1	
6	
4	
4	
8	
4	
3	
8	
5	
2	
4	
2	
4	
4	
4	
8	
5	
3	
6	
4	
5	
3	
3	
8	
6	
4	
7	
2	
4	
1	
3	
6	
5	
4	
6	
4	
8	
6	
6	
4	
4	
5	
2	
4	
5	
5	
1	
3	
2	
4	
4	
1	
4	
7	
2	
2	
5	
2	
3	
3	
2	
2	
4	
3	
5	
3	
1	
3	
3	
4	
6	
4	
3	
5	
1	
3	
8	
6	
8	
2	
4	
3	
4	
5	
8	
2	
0	
6	
8	
3	
6	
2	
4	
2	
5	
4	
2	
3	
5	
4	
7	
3	
7	
0	
4	
4	
3	
4	
1	
1	
5	
9	
2	
5	
6	
4	
2	
2	
3	
8	
4	
6	
4	
3	
4	
8	
3	
2	
8	
4	
4	
1	
0	
2	
5	
1	
4	
4	
4	
3	
3	
4	
7	
4	
2	
4	
3	
4	
3	
2	
5	
3	
2	
4	
3	
3	
5	
3	
6	
0	
6	
5	
1	
3	
1	
5	
2	
4	
3	
2	
3	
6	
6	
0	
1	
4	
4	
3	
3	
2	
5	
6	
3	
0	
5	
8	
4	
5	
4	
1	
4	
5	
2	
2	
3	
6	
4	
2	
4	
2	
2	
2	
2	
3	
6	
3	
3	
6	
5	
4	
3	
4	
3	
3	
2	
2	
3	
3	
3	
2	
4	
3	
4	
6	
5	
3	
3	
7	
1	
3	
3	
2	
4	
1	
3	
4	
5	
9	
1	
4	
1	
2	
5	
5	
5	
5	
5	
1	
8	
2	
1	
3	
6	
5	
2	
7	
2	
5	
4	
3	
1	
6	
4	
2	
3	
4	
6	
3	
5	
5	
3	
3	
3	
6	
5	
4	
2	
3	
5	
3	
7	
6	
7	
5	
2	
3	
6	
7	
2	
5	
0	
1	
4	
2	
4	
6	
2	
6	
2	
4	
2	
3	
3	
4	
5	
0	
4	
3	
4	
4	
5	
5	
6	
3	
1	
3	
4	
5	
1	
2	
7	
6	
1	
1	
3	
5	
3	
2	
2	
3	
3	
4	
5	
1	
2	
3	
7	
4	
8	
1	
1	
4	
4	
2	
6	
7	
4	
5	
5	
4	
7	
1	
8	
1	
0	
7	
7	
4	
4	
7	
4	
4	
6	
4	
5	
1	
3	
6	
5	
2	
5	
2	
1	
3	
7	
3	
1	
6	
10	
6	
5	
3	
5	
5	
1	
9	
5	
2	
5	
5	
9	
6	
7	
5	
7	
2	
4	
1	
8	
2	
6	
3	
3	
5	
7	
8	
5	
5	
4	
6	
7	
4	
3	
8	
5	
1	
4	
5	
5	
5	
3	
5	
2	
4	
2	
6	
9	
4	
8	
4	
6	
7	
3	
3	
2	
2	
5	
3	
3	
6	
4	
3	
1	
1	
5	
2	
3	
3	
1	
4	
4	
5	
8	
4	
4	
1	
2	
4	
3	
4	
3	
7	
8	
2	
5	
6	
5	
4	
8	
8	
2	
4	
5	
1	
4	
3	
1	
4	
4	
5	
4	
2	
2	
3	
4	
2	
5	
3	
6	
6	
3	
5	
3	
6	
3	
5	
4	
4	
5	
7	
0	
3	
4	
4	
3	
2	
2	
5	
5	
7	
4	
4	
4	
3	
4	
3	
3	
5	
1	
4	
2	
0	
4	
3	
4	
3	
5	
5	
4	
3	
0	
4	
6	
2	
4	
1	
3	
2	
3	
6	
4	
4	
4	
7	
5	
1	
3	
2	
2	
2	
8	
5	
3	
1	
4	
4	
0	
2	
4	
5	
4	
3	
8	
7	
3	
7	
6	
1	
5	
2	
2	
2	
5	
4	
6	
2	
5	
4	
5	
1	
5	
6	
3	
5	
5	
3	
2	
6	
7	
2	
1	
2	
6	
6	
2	
5	
6	
4	
2	
3	
2	
2	
2	
5	
5	
4	
5	
3	
5	
9	
1	
2	
4	
6	
5	
1	
10	
15	
8	
11	
11	
18	
19	
10	
20	
30	
30	
26	
36	
44	
55	
56	
53	
71	
76	
106	
107	
130	
167	
177	
216	
219	
268	
305	
343	
365	
398	
455	
502	
506	
600	
585	
623	
649	
688	
676	
710	
767	
769	
819	
803	
889	
835	
899	
891	
900	
935	
907	
853	
996	
968	
959	
979	
916	
960	
945	
1000	
945	
959	
897	
976	
973	
939	
923	
957	
883	
956	
983	
952	
958	
926	
944	
949	
923	
924	
949	
903	
992	
961	
950	
931	
921	
896	
881	
874	
951	
900	
892	
933	
898	
871	
881	
859	
847	
911	
941	
850	
849	
982	
917	
902	
922	
858	
875	
880	
880	
923	
896	
869	
875	
918	
863	
836	
895	
824	
907	
851	
869	
810	
855	
822	
885	
922	
903	
824	
802	
822	
825	
814	
882	
818	
857	
865	
889	
821	
884	
854	
864	
843	
840	
830	
865	
831	
823	
832	
802	
825	
824	
863	
782	
802	
857	
786	
862	
784	
791	
793	
789	
835	
791	
882	
772	
812	
828	
722	
806	
742	
788	
809	
825	
780	
834	
794	
776	
760	
819	
790	
826	
820	
801	
767	
819	
812	
764	
779	
784	
767	
805	
761	
817	
769	
794	
838	
830	
799	
836	
790	
785	
773	
813	
780	
777	
701	
783	
773	
779	
762	
757	
811	
739	
781	
766	
766	
802	
726	
794	
755	
755	
735	
733	
801	
760	
744	
798	
753	
715	
724	
759	
755	
756	
735	
696	
730	
775	
759	
720	
726	
642	
781	
762	
722	
774	
725	
709	
707	
766	
752	
735	
757	
741	
707	
705	
742	
783	
722	
771	
749	
709	
723	
750	
717	
739	
763	
704	
702	
722	
725	
744	
720	
668	
698	
722	
742	
645	
683	
732	
701	
723	
689	
674	
706	
696	
724	
685	
687	
678	
668	
632	
722	
693	
731	
674	
668	
728	
696	
655	
694	
677	
697	
659	
667	
700	
655	
677	
635	
682	
720	
691	
679	
687	
685	
639	
652	
668	
705	
684	
683	
744	
654	
676	
703	
662	
679	
668	
675	
666	
659	
679	
702	
665	
644	
690	
653	
676	
635	
660	
642	
649	
674	
640	
672	
667	
727	
716	
637	
641	
701	
627	
680	
634	
682	
681	
656	
628	
671	
618	
663	
661	
616	
645	
639	
666	
669	
667	
661	
673	
634	
621	
654	
626	
657	
609	
667	
616	
593	
666	
586	
590	
628	
603	
614	
656	
627	
630	
618	
617	
606	
643	
599	
610	
670	
614	
609	
627	
620	
611	
640	
623	
612	
606	
621	
603	
637	
638	
590	
632	
650	
635	
595	
654	
591	
619	
607	
600	
608	
599	
614	
626	
557	
592	
589	
612	
600	
557	
560	
640	
584	
611	
649	
618	
638	
564	
590	
629	
565	
606	
598	
578	
619	
604	
623	
622	
606	
586	
579	
625	
582	
622	
600	
616	
590	
604	
605	
606	
618	
604	
585	
588	
570	
587	
584	
578	
613	
550	
569	
615	
600	
603	
573	
589	
547	
591	
574	
591	
537	
590	
582	
602	
543	
568	
640	
566	
589	
589	
570	
627	
564	
610	
535	
511	
559	
586	
580	
596	
567	
538	
576	
562	
581	
570	
558	
579	
595	
561	
563	
602	
581	
526	
548	
551	
509	
568	
519	
542	
563	
534	
541	
562	
520	
563	
530	
550	
554	
559	
520	
551	
573	
553	
535	
561	
540	
537	
530	
534	
559	
526	
556	
567	
603	
550	
552	
559	
548	
520	
566	
548	
537	
536	
510	
548	
584	
543	
508	
523	
557	
545	
560	
546	
554	
528	
519	
539	
533	
487	
560	
554	
558	
520	
539	
497	
535	
509	
522	
527	
516	
585	
536	
557	
558	
546	
539	
578	
551	
518	
595	
586	
556	
528	
530	
560	
540	
538	
534	
521	
530	
551	
527	
563	
501	
561	
510	
526	
503	
524	
493	
547	
536	
531	
545	
528	
528	
514	
496	
493	
528	
507	
507	
527	
552	
509	
557	
514	
537	
529	
538	
509	
553	
504	
493	
538	
520	
487	
500	
469	
513	
540	
489	
505	
477	
512	
515	
519	
514	
543	
524	
464	
491	
507	
475	
502	
532	
489	
470	
502	
515	
505	
478	
516	
487	
484	
514	
481	
525	
527	
459	
481	
492	
497	
514	
506	
485	
484	
481	
472	
449	
481	
480	
523	
494	
512	
523	
519	
480	
459	
492	
496	
513	
486	
501	
510	
468	
473	
459	
509	
537	
492	
463	
512	
467	
465	
509	
507	
461	
507	
493	
483	
442	
503	
505	
494	
472	
464	
489	
459	
519	
470	
510	
515	
458	
452	
460	
457	
452	
515	
495	
486	
483	
467	
486	
490	
503	
493	
476	
461	
484	
456	
487	
479	
441	
474	
453	
482	
476	
473	
472	
481	
464	
459	
484	
466	
459	
470	
452	
501	
498	
485	
473	
441	
463	
439	
430	
471	
458	
462	
446	
458	
458	
445	
443	
457	
455	
460	
451	
444	
433	
432	
502	
488	
457	
438	
466	
501	
467	
456	
465	
461	
412	
446	
439	
475	
446	
457	
471	
454	
477	
459	
455	
473	
436	
418	
425	
442	
454	
445	
444	
426	
445	
432	
480	
476	
411	
455	
451	
468	
464	
463	
462	
482	
451	
459	
456	
445	
470	
476	
491	
449	
435	
485	
437	
452	
477	
487	
457	
422	
441	
446	
423	
400	
466	
421	
416	
441	
467	
428	
454	
477	
414	
463	
423	
434	
405	
417	
441	
426	
432	
480	
430	
408	
422	
410	
416	
450	
464	
398	
409	
405	
438	
446	
455	
441	
403	
384	
444	
431	
444	
454	
439	
437	
403	
409	
414	
424	
410	
382	
428	
450	
413	
421	
400	
383	
418	
455	
427	
443	
418	
450	
443	
431	
404	
424	
369	
430	
388	
431	
403	
418	
413	
383	
418	
409	
404	
442	
417	
439	
416	
414	
424	
418	
398	
410	
391	
397	
377	
415	
397	
406	
404	
403	
412	
392	
417	
409	
422	
393	
399	
406	
402	
412	
424	
395	
410	
423	
402	
415	
419	
410	
448	
400	
417	
454	
423	
429	
387	
417	
416	
416	
444	
403	
409	
351	
414	
421	
398	
390	
434	
400	
378	
412	
389	
386	
424	
422	
430	
414	
388	
406	
395	
413	
403	
386	
386	
398	
357	
364	
444	
384	
392	
393	
400	
391	
396	
403	
441	
397	
390	
403	
388	
436	
395	
386	
398	
415	
406	
393	
397	
375	
346	
396	
375	
417	
405	
370	
391	
397	
406	
363	
403	
368	
384	
402	
402	
387	
403	
392	
410	
399	
393	
415	
389	
383	
374	
409	
387	
407	
381	
417	
420	
352	
357	
376	
379	
376	
390	
387	
408	
411	
343	
409	
381	
383	
360	
373	
341	
399	
372	
402	
389	
387	
370	
384	
360	
364	
366	
384	
344	
383	
424	
402	
394	
359	
415	
383	
426	
373	
357	
376	
378	
387	
374	
361	
388	
382	
386	
358	
376	
348	
447	
378	
385	
386	
375	
356	
351	
399	
352	
363	
366	
330	
367	
387	
399	
383	
371	
364	
379	
347	
356	
390	
378	
379	
383	
344	
381	
369	
365	
390	
354	
358	
377	
349	
361	
366	
361	
347	
357	
374	
372	
355	
342	
360	
377	
373	
382	
351	
355	
415	
406	
380	
345	
361	
370	
366	
361	
382	
334	
340	
361	
369	
341	
360	
365	
357	
387	
393	
330	
344	
328	
389	
386	
375	
382	
353	
314	
371	
338	
376	
368	
344	
365	
371	
360	
381	
390	
347	
374	
342	
354	
389	
352	
361	
365	
352	
338	
368	
345	
347	
364	
344	
333	
376	
376	
335	
346	
351	
334	
402	
319	
332	
344	
350	
398	
352	
341	
382	
353	
347	
347	
363	
346	
370	
372	
366	
352	
358	
336	
325	
356	
341	
356	
363	
362	
316	
311	
376	
314	
325	
348	
372	
346	
312	
343	
349	
313	
383	
351	
347	
341	
337	
353	
345	
334	
341	
323	
359	
315	
350	
356	
330	
339	
366	
346	
356	
327	
326	
329	
303	
350	
320	
325	
299	
375	
346	
337	
340	
332	
353	
334	
368	
302	
308	
350	
309	
335	
332	
353	
316	
341	
332	
317	
361	
308	
328	
331	
320	
352	
326	
288	
363	
344	
299	
300	
318	
327	
357	
315	
341	
338	
360	
335	
324	
360	
323	
340	
331	
323	
347	
325	
290	
348	
345	
325	
324	
323	
296	
320	
328	
340	
357	
327	
320	
299	
329	
320	
295	
303	
319	
353	
322	
320	
342	
330	
334	
327	
313	
313	
331	
333	
337	
337	
340	
316	
332	
317	
335	
334	
344	
330	
312	
322	
293	
347	
335	
324	
326	
335	
349	
322	
352	
318	
303	
332	
336	
304	
340	
304	
350	
307	
352	
312	
283	
316	
297	
317	
303	
323	
302	
296	
290	
294	
347	
339	
307	
298	
323	
308	
298	
322	
307	
328	
314	
300	
290	
305	
280	
312	
312	
282	
287	
327	
307	
303	
314	
296	
273	
319	
336	
307	
325	
308	
314	
293	
289	
319	
306	
329	
320	
308	
307	
330	
301	
339	
343	
322	
315	
309	
299	
326	
311	
292	
356	
293	
352	
325	
316	
309	
334	
299	
299	
296	
304	
301	
299	
301	
298	
309	
288	
349	
320	
298	
325	
313	
324	
278	
290	
311	
309	
308	
283	
325	
294	
304	
295	
318	
295	
332	
320	
313	
320	
322	
287	
279	
306	
289	
322	
289	
316	
315	
293	
293	
331	
326	
302	
292	
281	
280	
312	
306	
314	
316	
299	
304	
270	
287	
294	
306	
311	
305	
294	
303	
299	
282	
268	
316	
269	
301	
261	
290	
277	
318	
296	
273	
297	
302	
302	
300	
289	
312	
286	
284	
288	
317	
288	
259	
316	
299	
302	
300	
283	
293	
302	
308	
286	
293	
320	
287	
313	
312	
300	
302	
286	
294	
271	
297	
286	
275	
322	
281	
279	
298	
302	
294	
299	
300	
304	
257	
283	
315	
288	
267	
282	
327	
269	
247	
292	
284	
280	
283	
258	
283	
270	
306	
292	
292	
251	
282	
285	
299	
286	
291	
286	
289	
293	
297	
277	
287	
291	
269	
248	
271	
280	
302	
299	
297	
263	
250	
280	
284	
279	
268	
268	
270	
288	
265	
297	
301	
266	
277	
289	
249	
281	
255	
319	
294	
266	
307	
298	
264	
290	
288	
258	
264	
280	
287	
270	
272	
279	
296	
288	
265	
275	
307	
285	
281	
282	
281	
315	
290	
309	
302	
271	
278	
276	
289	
291	
281	
254	
280	
267	
276	
283	
286	
283	
282	
280	
285	
254	
294	
254	
292	
254	
274	
253	
301	
247	
264	
265	
239	
292	
250	
228	
239	
281	
241	
273	
273	
278	
281	
257	
289	
281	
290	
268	
274	
275	
275	
275	
255	
268	
263	
294	
251	
249	
253	
261	
307	
235	
268	
273	
288	
265	
291	
265	
280	
236	
290	
273	
271	
261	
284	
289	
277	
261	
281	
237	
258	
256	
249	
222	
256	
278	
241	
269	
269	
276	
255	
261	
268	
284	
263	
282	
277	
244	
269	
240	
269	
275	
259	
272	
268	
243	
265	
276	
256	
256	
247	
308	
272	
266	
276	
261	
254	
252	
235	
282	
273	
258	
257	
258	
241	
287	
275	
258	
266	
240	
261	
252	
286	
264	
263	
260	
278	
259	
279	
268	
261	
282	
284	
251	
272	
225	
231	
283	
271	
279	
245	
259	
257	
249	
252	
240	
252	
243	
244	
254	
263	
277	
272	
257	
257	
249	
250	
242	
261	
265	
233	
219	
262	
235	
266	
267	
252	
254	
252	
266	
231	
250	
242	
250	
266	
248	
243	
229	
236	
242	
279	
229	
263	
236	
243	
256	
220	
228	
241	
252	
254	
259	
234	
262	
254	
257	
246	
228	
252	
257	
258	
247	
232	
266	
253	
258	
243	
214	
264	
259	
234	
237	
269	
232	
258	
227	
250	
242	
238	
257	
222	
263	
253	
244	
245	
254	
253	
219	
234	
240	
270	
245	
240	
244	
234	
232	
254	
224	
232	
294	
238	
287	
218	
260	
237	
253	
241	
226	
235	
228	
267	
230	
259	
215	
250	
258	
245	
235	
250	
235	
224	
235	
268	
271	
260	
240	
227	
246	
244	
246	
245	
239	
226	
237	
234	
236	
222	
240	
218	
243	
222	
274	
237	
259	
245	
228	
235	
227	
244	
247	
224	
252	
229	
229	
248	
226	
249	
249	
264	
230	
239	
227	
243	
228	
211	
270	
223	
269	
249	
234	
251	
241	
238	
225	
225	
216	
224	
240	
217	
243	
227	
241	
218	
250	
221	
250	
226	
252	
224	
220	
234	
235	
227	
240	
239	
246	
237	
240	
197	
232	
260	
230	
226	
234	
233	
207	
244	
222	
231	
243	
240	
227	
251	
223	
218	
228	
257	
221	
229	
249	
255	
247	
224	
239	
229	
250	
251	
226	
238	
242	
218	
247	
223	
233	
224	
226	
226	
207	
238	
244	
228	
211	
245	
224	
232	
243	
236	
239	
238	
227	
231	
229	
222	
244	
245	
220	
259	
202	
221	
225	
215	
241	
222	
210	
209	
241	
244	
228	
202	
228	
204	
193	
240	
254	
216	
233	
220	
249	
241	
235	
246	
229	
209	
251	
215	
220	
241	
222	
243	
226	
231	
217	
222	
242	
238	
237	
243	
215	
242	
242	
221	
223	
225	
235	
253	
220	
214	
213	
230	
222	
219	
219	
237	
214	
254	
211	
226	
252	
231	
241	
231	
209	
211	
236	
232	
201	
211	
208	
193	
217	
226	
240	
201	
226	
214	
217	
209	
204	
235	
207	
224	
235	
208	
199	
208	
204	
210	
240	
187	
217	
235	
226	
218	
220	
225	
172	
206	
207	
193	
215	
195	
192	
218	
237	
185	
222	
214	
210	
217	
232	
233	
209	
212	
229	
222	
201	
234	
210	
198	
214	
213	
225	
215	
210	
203	
211	
206	
207	
201	
206	
237	
214	
225	
212	
195	
205	
223	
198	
212	
216	
196	
209	
203	
214	
191	
231	
195	
194	
200	
226	
191	
212	
197	
190	
192	
201	
196	
239	
213	
229	
196	
225	
207	
179	
181	
240	
217	
204	
229	
207	
192	
213	
213	
198	
227	
188	
192	
202	
182	
191	
200	
190	
216	
199	
177	
211	
230	
221	
212	
238	
193	
233	
190	
196	
187	
230	
214	
220	
173	
229	
196	
209	
189	
240	
204	
209	
215	
217	
224	
206	
208	
194	
208	
200	
211	
205	
218	
207	
187	
212	
169	
201	
199	
193	
202	
187	
204	
210	
218	
218	
182	
200	
193	
221	
199	
209	
215	
198	
190	
190	
205	
188	
186	
226	
210	
201	
215	
198	
169	
219	
217	
204	
200	
225	
183	
181	
217	
189	
201	
180	
225	
185	
208	
191	
197	
191	
196	
221	
210	
203	
212	
189	
190	
202	
240	
185	
198	
187	
191	
200	
194	
210	
208	
198	
206	
180	
206	
220	
178	
199	
202	
202	
204	
181	
218	
190	
211	
215	
195	
181	
207	
190	
203	
179	
183	
205	
210	
186	
195	
173	
200	
169	
208	
199	
193	
204	
201	
212	
212	
205	
210	
183	
181	
218	
229	
228	
212	
193	
206	
196	
209	
202	
217	
205	
199	
194	
176	
199	
195	
180	
197	
197	
221	
207	
181	
195	
174	
196	
207	
170	
195	
178	
186	
194	
198	
205	
207	
190	
189	
198	
207	
190	
192	
206	
170	
213	
185	
208	
194	
186	
198	
166	
190	
193	
178	
199	
210	
162	
186	
204	
207	
190	
179	
186	
184	
188	
188	
204	
201	
212	
209	
149	
184	
203	
193	
194	
183	
181	
203	
199	
200	
185	
199	
172	
203	
186	
184	
184	
189	
191	
183	
201	
189	
176	
208	
197	
190	
200	
196	
196	
180	
185	
164	
195	
178	
185	
172	
167	
182	
192	
204	
177	
179	
205	
188	
170	
178	
181	
169	
206	
183	
177	
199	
173	
179	
175	
166	
186	
196	
172	
176	
178	
185	
180	
196	
201	
176	
192	
184	
186	
186	
216	
182	
179	
160	
186	
182	
182	
186	
161	
162	
184	
203	
192	
171	
204	
171	
176	
197	
185	
185	
196	
185	
180	
168	
181	
202	
167	
182	
205	
170	
172	
181	
168	
179	
168	
175	
195	
181	
195	
194	
210	
166	
180	
180	
219	
183	
206	
186	
186	
169	
188	
195	
167	
156	
175	
183	
189	
193	
158	
195	
144	
168	
175	
178	
173	
174	
149	
187	
185	
209	
197	
183	
159	
176	
165	
178	
183	
174	
159	
188	
158	
178	
184	
181	
192	
185	
186	
170	
170	
163	
176	
170	
178	
174	
205	
159	
176	
153	
183	
198	
198	
175	
178	
170	
172	
175	
177	
189	
154	
176	
179	
178	
174	
150	
181	
170	
161	
161	
144	
151	
188	
177	
189	
189	
197	
188	
182	
170	
198	
177	
202	
181	
162	
141	
181	
178	
187	
176	
164	
183	
182	
173	
172	
191	
138	
181	
178	
183	
169	
187	
173	
165	
171	
171	
152	
162	
178	
182	
147	
168	
158	
191	
155	
177	
172	
174	
172	
160	
166	
163	
166	
170	
186	
173	
164	
167	
172	
163	
177	
173	
158	
175	
170	
173	
170	
175	
175	
172	
175	
183	
168	
195	
148	
182	
145	
173	
173	
176	
159	
177	
168	
182	
165	
174	
177	
160	
162	
164	
167	
179	
185	
167	
164	
155	
182	
167	
204	
160	
195	
163	
173	
165	
176	
172	
140	
168	
188	
193	
176	
173	
179	
181	
161	
172	
159	
164	
187	
196	
163	
180	
151	
191	
164	
171	
148	
150	
190	
166	
160	
147	
162	
185	
175	
164	
156	
179	
196	
163	
193	
152	
182	
167	
163	
160	
181	
177	
187	
159	
171	
177	
150	
163	
160	
190	
168	
176	
182	
174	
160	
164	
143	
176	
161	
150	
175	
174	
165	
150	
157	
153	
182	
164	
159	
165	
157	
161	
142	
153	
158	
195	
168	
158	
163	
169	
154	
185	
167	
138	
158	
169	
177	
180	
152	
141	
163	
164	
161	
157	
148	
176	
189	
172	
169	
153	
170	
157	
159	
139	
160	
147	
177	
137	
163	
177	
178	
159	
183	
170	
147	
148	
174	
174	
160	
173	
163	
125	
169	
146	
140	
156	
162	
162	
154	
162	
161	
152	
148	
151	
165	
173	
137	
149	
148	
149	
157	
169	
159	
162	
146	
161	
112	
159	
148	
178	
153	
164	
149	
148	
171	
174	
139	
167	
156	
177	
162	
162	
163	
170	
147	
190	
162	
152	
185	
164	
149	
179	
168	
163	
155	
164	
135	
141	
142	
124	
146	
171	
175	
171	
157	
164	
161	
165	
183	
166	
160	
147	
143	
152	
167	
165	
162	
153	
154	
148	
185	
177	
135	
177	
145	
156	
165	
159	
143	
150	
162	
158	
186	
163	
150	
177	
167	
154	
173	
169	
146	
153	
156	
164	
171	
163	
171	
167	
170	
156	
153	
137	
177	
143	
137	
142	
164	
129	
138	
164	
170	
151	
144	
160	
150	
158	
157	
151	
143	
164	
163	
155	
146	
131	
162	
161	
142	
151	
157	
147	
161	
146	
150	
155	
138	
154	
162	
170	
134	
165	
122	
145	
156	
152	
135	
148	
162	
165	
164	
135	
148	
158	
170	
140	
168	
167	
155	
145	
151	
160	
168	
127	
133	
176	
137	
158	
152	
132	
148	
164	
153	
148	
157	
139	
147	
129	
155	
163	
136	
162	
154	
155	
163	
138	
145	
183	
158	
167	
164	
163	
136	
152	
156	
166	
159	
162	
154	
150	
177	
147	
151	
158	
168	
128	
147	
129	
149	
150	
140	
145	
172	
160	
140	
156	
154	
159	
157	
142	
138	
171	
144	
140	
147	
142	
129	
173	
133	
147	
151	
160	
161	
153	
161	
138	
122	
141	
153	
127	
178	
150	
151	
148	
145	
142	
147	
150	
148	
153	
119	
124	
152	
143	
136	
167	
132	
135	
132	
143	
157	
143	
131	
132	
122	
135	
150	
147	
138	
167	
144	
156	
143	
144	
143	
130	
158	
148	
148	
159	
134	
162	
140	
138	
133	
131	
131	
146	
138	
143	
138	
147	
159	
150	
133	
129	
142	
133	
134	
137	
157	
130	
146	
149	
117	
179	
120	
128	
154	
174	
150	
138	
144	
153	
156	
147	
152	
146	
123	
151	
157	
138	
146	
130	
146	
150	
127	
143	
145	
155	
152	
144	
153	
145	
141	
154	
148	
148	
137	
147	
161	
127	
143	
152	
122	
125	
124	
137	
162	
125	
141	
139	
144	
144	
154	
140	
120	
147	
144	
144	
151	
133	
127	
133	
139	
154	
149	
143	
143	
141	
145	
136	
161	
148	
148	
140	
152	
138	
118	
122	
154	
141	
142	
135	
143	
155	
145	
146	
150	
141	
127	
147	
137	
123	
133	
143	
121	
133	
148	
148	
144	
150	
136	
123	
119	
131	
133	
167	
153	
131	
138	
121	
135	
133	
150	
140	
144	
133	
130	
153	
133	
145	
156	
155	
123	
137	
123	
128	
146	
125	
139	
152	
152	
126	
138	
127	
138	
128	
135	
150	
141	
154	
143	
127	
139	
139	
148	
135	
166	
131	
144	
117	
135	
129	
140	
111	
141	
130	
142	
140	
134	
139	
128	
149	
141	
124	
135	
137	
141	
114	
146	
121	
150	
124	
116	
131	
140	
164	
139	
129	
167	
144	
139	
141	
148	
178	
131	
133	
134	
166	
120	
156	
133	
126	
151	
140	
133	
147	
125	
146	
124	
122	
128	
133	
124	
141	
140	
155	
141	
135	
134	
132	
132	
136	
136	
136	
117	
152	
131	
138	
141	
149	
128	
137	
126	
120	
135	
132	
134	
131	
130	
124	
102	
142	
140	
123	
119	
121	
139	
164	
141	
139	
145	
134	
133	
126	
124	
136	
110	
140	
130	
127	
147	
122	
137	
125	
129	
136	
128	
123	
127	
133	
123	
120	
136	
147	
136	
144	
149	
139	
148	
114	
105	
145	
136	
137	
139	
125	
126	
136	
136	
120	
131	
130	
138	
113	
142	
121	
125	
127	
119	
165	
131	
125	
138	
136	
139	
136	
115	
108	
152	
130	
127	
130	
137	
110	
129	
111	
120	
129	
137	
131	
118	
155	
144	
132	
139	
136	
133	
137	
128	
133	
135	
115	
120	
125	
144	
149	
132	
142	
126	
129	
140	
131	
143	
120	
125	
128	
134	
138	
109	
148	
117	
128	
132	
140	
125	
140	
138	
134	
128	
138	
125	
115	
122	
108	
130	
124	
124	
126	
122	
122	
141	
115	
135	
112	
136	
134	
123	
116	
127	
120	
130	
125	
103	
139	
130	
139	
118	
128	
109	
127	
121	
130	
141	
139	
120	
146	
133	
134	
117	
120	
110	
144	
121	
127	
140	
135	
122	
142	
113	
114	
122	
131	
130	
133	
143	
141	
114	
100	
109	
123	
126	
106	
122	
104	
131	
138	
130	
139	
133	
117	
136	
122	
108	
128	
146	
123	
119	
135	
125	
128	
129	
135	
118	
114	
131	
120	
135	
133	
115	
151	
110	
119	
123	
144	
124	
122	
117	
129	
146	
112	
98	
121	
111	
124	
128	
124	
111	
131	
139	
154	
123	
130	
112	
129	
147	
128	
129	
137	
117	
126	
103	
146	
142	
118	
126	
141	
120	
117	
116	
118	
121	
130	
123	
97	
122	
124	
107	
119	
134	
110	
142	
121	
117	
119	
126	
145	
118	
116	
118	
113	
119	
122	
125	
113	
119	
118	
104	
143	
131	
104	
103	
120	
92	
114	
121	
129	
132	
128	
120	
129	
112	
116	
128	
133	
128	
143	
139	
138	
119	
115	
118	
94	
119	
112	
141	
110	
120	
119	
139	
145	
124	
107	
108	
97	
118	
109	
115	
132	
121	
111	
98	
127	
126	
139	
117	
112	
118	
125	
117	
126	
140	
109	
128	
122	
105	
108	
124	
131	
128	
108	
119	
108	
117	
114	
109	
118	
109	
111	
108	
135	
108	
114	
108	
142	
124	
131	
132	
96	
94	
122	
107	
125	
124	
116	
107	
120	
115	
109	
110	
111	
134	
123	
105	
105	
111	
119	
109	
113	
125	
115	
117	
108	
117	
119	
113	
122	
119	
116	
116	
118	
93	
117	
129	
96	
115	
126	
111	
108	
149	
100	
110	
112	
120	
89	
127	
99	
128	
106	
132	
115	
114	
138	
114	
116	
122	
108	
107	
114	
127	
121	
122	
131	
115	
126	
143	
112	
115	
102	
107	
116	
98	
116	
107	
106	
122	
144	
115	
81	
110	
111	
107	
133	
116	
100	
134	
99	
119	
102	
112	
122	
109	
109	
100	
118	
113	
111	
110	
90	
111	
110	
120	
133	
100	
118	
146	
109	
105	
121	
106	
121	
100	
109	
111	
125	
113	
116	
111	
119	
104	
110	
110	
122	
108	
109	
99	
106	
111	
103	
115	
107	
102	
115	
113	
101	
130	
95	
111	
109	
111	
94	
115	
108	
105	
116	
116	
109	
94	
105	
100	
109	
110	
102	
108	
106	
133	
120	
116	
119	
113	
98	
124	
106	
91	
127	
122	
122	
94	
114	
116	
108	
108	
116	
119	
124	
109	
107	
108	
96	
119	
122	
127	
92	
104	
119	
102	
117	
124	
110	
126	
127	
119	
118	
116	
92	
111	
105	
105	
99	
130	
96	
124	
128	
99	
99	
114	
125	
109	
114	
115	
112	
118	
121	
109	
117	
114	
113	
120	
107	
123	
112	
108	
119	
122	
119	
104	
89	
129	
115	
99	
95	
95	
110	
118	
108	
100	
121	
121	
88	
94	
110	
103	
126	
129	
113	
112	
103	
100	
95	
119	
123	
130	
104	
91	
101	
98	
105	
109	
122	
112	
102	
98	
117	
122	
121	
106	
97	
99	
117	
121	
112	
118	
122	
141	
99	
89	
111	
102	
129	
117	
104	
118	
110	
118	
108	
100	
124	
106	
108	
82	
100	
94	
117	
110	
107	
96	
121	
103	
105	
117	
123	
113	
93	
111	
111	
104	
105	
121	
109	
103	
101	
101	
91	
108	
101	
103	
116	
110	
110	
113	
87	
106	
101	
95	
113	
109	
107	
121	
100	
121	
106	
90	
123	
96	
104	
102	
97	
80	
114	
101	
111	
104	
102	
96	
87	
103	
100	
105	
123	
116	
117	
112	
101	
108	
105	
115	
95	
117	
104	
94	
102	
105	
106	
87	
110	
113	
108	
105	
108	
116	
110	
89	
98	
112	
99	
107	
105	
88	
101	
112	
124	
120	
127	
103	
117	
89	
122	
108	
93	
101	
113	
106	
117	
111	
116	
107	
115	
106	
107	
90	
109	
109	
116	
101	
85	
97	
109	
110	
113	
96	
104	
97	
108	
96	
86	
105	
89	
90	
92	
103	
120	
101	
98	
98	
118	
100	
106	
115	
110	
96	
113	
111	
106	
113	
98	
96	
104	
94	
108	
102	
89	
101	
131	
110	
114	
112	
102	
109	
99	
82	
104	
102	
103	
95	
101	
107	
96	
103	
106	
113	
94	
104	
79	
104	
103	
104	
99	
112	
93	
99	
99	
109	
103	
112	
111	
103	
105	
101	
113	
119	
99	
98	
104	
91	
104	
108	
112	
87	
95	
117	
99	
123	
107	
98	
96	
104	
97	
107	
87	
111	
98	
101	
95	
81	
109	
111	
94	
89	
90	
108	
108	
97	
120	
91	
102	
105	
95	
95	
76	
107	
108	
99	
102	
102	
94	
112	
108	
99	
91	
99	
110	
88	
107	
95	
101	
102	
102	
108	
98	
96	
98	
103	
95	
100	
91	
101	
103	
107	
81	
101	
105	
105	
99	
109	
105	
94	
99	
99	
82	
96	
107	
110	
94	
88	
91	
98	
101	
108	
95	
100	
110	
100	
112	
106	
90	
116	
104	
99	
102	
93	
97	
83	
92	
102	
107	
106	
87	
103	
101	
92	
107	
120	
96	
116	
88	
81	
103	
85	
108	
95	
86	
106	
96	
115	
90	
104	
101	
102	
113	
101	
92	
109	
86	
95	
88	
111	
120	
94	
77	
73	
80	
83	
96	
93	
104	
103	
93	
104	
100	
106	
102	
93	
94	
93	
85	
105	
93	
98	
80	
97	
80	
101	
71	
91	
102	
96	
93	
103	
98	
92	
91	
93	
89	
95	
118	
97	
108	
90	
95	
93	
101	
111	
85	
85	
114	
87	
107	
92	
90	
80	
77	
111	
103	
87	
94	
89	
86	
93	
95	
97	
99	
85	
95	
103	
98	
96	
102	
85	
88	
110	
91	
91	
113	
95	
112	
104	
101	
97	
98	
102	
83	
98	
87	
115	
97	
93	
99	
91	
100	
91	
97	
108	
96	
109	
104	
83	
111	
80	
89	
87	
101	
99	
104	
102	
90	
95	
93	
105	
96	
94	
100	
87	
104	
86	
93	
104	
76	
102	
96	
86	
75	
88	
82	
95	
97	
100	
107	
108	
98	
110	
95	
91	
106	
114	
116	
72	
93	
104	
96	
80	
100	
83	
77	
90	
95	
96	
75	
86	
98	
104	
86	
106	
83	
76	
97	
98	
105	
72	
83	
108	
98	
83	
101	
80	
87	
76	
102	
83	
105	
87	
87	
90	
71	
85	
109	
87	
96	
73	
98	
101	
91	
84	
79	
88	
76	
96	
90	
94	
100	
98	
90	
79	
95	
111	
97	
106	
87	
97	
95	
91	
95	
102	
92	
90	
77	
102	
93	
87	
91	
88	
92	
111	
92	
85	
87	
88	
89	
74	
89	
85	
78	
94	
92	
71	
81	
100	
102	
92	
84	
102	
76	
94	
96	
86	
97	
86	
89	
122	
90	
99	
89	
100	
90	
101	
103	
82	
92	
95	
92	
108	
89	
87	
103	
91	
99	
82	
97	
86	
83	
96	
102	
89	
90	
86	
94	
70	
95	
92	
89	
85	
78	
105	
88	
86	
84	
84	
85	
93	
91	
94	
96	
90	
109	
81	
104	
92	
86	
85	
93	
76	
97	
113	
84	
90	
96	
96	
96	
86	
100	
90	
86	
91	
100	
102	
104	
78	
84	
98	
98	
94	
86	
78	
83	
93	
95	
90	
82	
92	
82	
90	
87	
91	
87	
87	
78	
70	
81	
91	
74	
81	
92	
99	
72	
73	
74	
112	
103	
79	
85	
88	
81	
84	
85	
89	
109	
89	
87	
97	
100	
90	
94	
100	
92	
84	
78	
79	
87	
90	
75	
87	
89	
85	
99	
92	
99	
87	
78	
86	
95	
79	
88	
80	
71	
91	
86	
78	
91	
76	
85	
85	
79	
96	
79	
99	
94	
74	
107	
93	
108	
83	
99	
99	
80	
85	
99	
78	
87	
91	
87	
77	
79	
92	
83	
77	
88	
89	
93	
87	
79	
96	
84	
88	
80	
75	
80	
77	
82	
74	
84	
84	
83	
88	
66	
82	
71	
86	
83	
79	
94	
84	
91	
88	
91	
76	
94	
100	
97	
89	
75	
94	
84	
87	
77	
81	
99	
86	
90	
100	
72	
87	
89	
96	
97	
92	
75	
90	
82	
89	
91	
101	
109	
86	
92	
85	
92	
92	
88	
86	
92	
91	
88	
89	
80	
76	
69	
66	
90	
82	
78	
59	
66	
104	
76	
95	
74	
88	
86	
76	
99	
85	
80	
93	
89	
87	
89	
81	
90	
87	
85	
105	
66	
85	
92	
91	
82	
92	
101	
84	
72	
72	
75	
74	
62	
69	
90	
75	
86	
90	
91	
77	
86	
83	
81	
67	
80	
78	
93	
104	
72	
78	
87	
94	
81	
74	
72	
86	
90	
85	
70	
84	
98	
80	
71	
90	
85	
72	
84	
86	
74	
73	
96	
84	
69	
82	
68	
76	
112	
79	
80	
85	
87	
91	
70	
95	
99	
87	
87	
83	
94	
84	
85	
76	
84	
80	
81	
72	
74	
87	
90	
79	
80	
77	
73	
86	
74	
90	
72	
79	
85	
91	
80	
92	
89	
89	
75	
75	
101	
74	
81	
87	
85	
77	
69	
77	
82	
84	
94	
98	
83	
89	
89	
78	
83	
72	
77	
102	
89	
73	
88	
81	
97	
84	
85	
86	
72	
62	
69	
96	
87	
87	
87	
86	
93	
70	
96	
91	
78	
102	
92	
77	
75	
100	
70	
85	
74	
76	
83	
74	
78	
85	
71	
85	
89	
88	
76	
80	
76	
68	
71	
73	
85	
68	
78	
82	
78	
84	
74	
75	
87	
77	
62	
91	
78	
92	
72	
105	
79	
76	
83	
108	
93	
80	
73	
81	
96	
75	
75	
83	
72	
70	
89	
74	
64	
75	
72	
78	
61	
79	
90	
71	
86	
60	
77	
86	
83	
73	
75	
75	
94	
92	
99	
81	
89	
77	
79	
88	
84	
79	
76	
87	
97	
91	
70	
78	
82	
62	
75	
76	
73	
70	
69	
78	
80	
69	
65	
75	
94	
92	
73	
78	
83	
76	
69	
84	
80	
79	
88	
67	
79	
81	
70	
65	
85	
94	
72	
88	
75	
88	
70	
79	
78	
85	
86	
71	
76	
84	
81	
70	
76	
70	
85	
93	
81	
72	
85	
82	
82	
72	
75	
86	
76	
78	
93	
86	
101	
88	
71	
75	
76	
87	
66	
75	
77	
90	
77	
62	
66	
65	
70	
69	
99	
72	
84	
78	
83	
87	
73	
79	
61	
93	
83	
98	
86	
83	
84	
83	
74	
71	
100	
84	
76	
76	
67	
71	
64	
63	
64	
78	
88	
82	
101	
93	
65	
95	
79	
78	
76	
64	
78	
73	
93	
74	
82	
82	
71	
69	
88	
87	
91	
79	
89	
76	
55	
78	
85	
74	
74	
69	
63	
61	
80	
77	
64	
86	
97	
69	
73	
86	
71	
87	
66	
66	
82	
71	
85	
72	
74	
79	
65	
61	
67	
79	
69	
64	
73	
70	
74	
73	
73	
78	
81	
80	
65	
81	
95	
64	
51	
64	
70	
70	
71	
85	
69	
70	
75	
65	
76	
82	
77	
74	
83	
73	
69	
77	
79	
70	
89	
69	
65	
81	
68	
75	
93	
78	
71	
64	
75	
72	
83	
77	
73	
73	
94	
66	
77	
76	
56	
75	
80	
58	
74	
71	
84	
90	
66	
61	
66	
70	
73	
64	
68	
73	
74	
88	
71	
70	
75	
71	
77	
75	
66	
72	
57	
64	
86	
70	
69	
77	
68	
67	
70	
93	
72	
61	
75	
73	
71	
77	
101	
83	
80	
73	
63	
81	
92	
72	
73	
74	
79	
75	
78	
74	
71	
77	
78	
73	
75	
63	
90	
79	
56	
60	
72	
68	
79	
75	
80	
63	
62	
82	
86	
81	
84	
72	
69	
69	
66	
80	
79	
77	
78	
71	
83	
75	
60	
79	
70	
84	
62	
78	
79	
78	
67	
82	
76	
80	
69	
71	
80	
75	
66	
85	
82	
70	
72	
64	
71	
79	
76	
87	
79	
77	
68	
71	
58	
63	
66	
68	
78	
85	
71	
58	
53	
80	
82	
66	
70	
64	
63	
62	
81	
80	
65	
62	
83	
80	
76	
75	
87	
78	
86	
78	
70	
56	
74	
75	
61	
63	
68	
64	
56	
61	
65	
60	
71	
80	
72	
74	
79	
80	
72	
63	
67	
69	
61	
75	
75	
76	
64	
68	
69	
73	
73	
81	
74	
68	
52	
64	
62	
62	
60	
78	
64	
61	
80	
75	
73	
69	
75	
85	
77	
66	
61	
67	
80	
79	
66	
69	
80	
62	
67	
86	
68	
69	
74	
77	
79	
62	
76	
47	
64	
85	
65	
66	
88	
83	
62	
73	
66	
56	
72	
59	
71	
63	
78	
67	
68	
67	
80	
67	
64	
62	
71	
67	
76	
66	
69	
67	
75	
72	
67	
68	
86	
76	
64	
59	
80	
72	
57	
77	
73	
59	
73	
64	
80	
80	
68	
72	
76	
72	
69	
93	
50	
74	
62	
59	
66	
86	
64	
77	
74	
74	
78	
77	
85	
71	
78	
78	
70	
77	
63	
70	
83	
69	
77	
70	
74	
63	
67	
62	
79	
83	
65	
69	
60	
70	
79	
56	
62	
60	
68	
72	
58	
79	
86	
72	
64	
70	
67	
70	
70	
65	
67	
66	
81	
72	
66	
59	
64	
73	
53	
75	
55	
73	
81	
76	
68	
62	
73	
79	
84	
70	
68	
74	
58	
82	
86	
71	
65	
70	
70	
81	
77	
58	
73	
78	
73	
71	
69	
75	
61	
60	
70	
