#PicoHarp 300  Histogram Data			05/25/2022 09:47:56 AM
#channels per curve
31250
#display curve no.
0	
#memory block no.
0	
#ns/channel
0.0320	
#counts
5	
6	
4	
5	
8	
5	
8	
11	
11	
5	
6	
7	
6	
7	
5	
4	
8	
2	
6	
7	
7	
4	
1	
7	
11	
3	
3	
4	
5	
6	
5	
4	
7	
6	
8	
5	
4	
4	
7	
3	
10	
7	
5	
6	
8	
3	
5	
9	
5	
12	
3	
4	
5	
3	
7	
4	
2	
3	
10	
6	
5	
10	
3	
6	
6	
13	
6	
1	
5	
5	
10	
5	
9	
7	
5	
9	
5	
11	
7	
4	
8	
4	
8	
6	
13	
5	
3	
9	
6	
4	
8	
6	
4	
9	
5	
3	
5	
7	
5	
3	
3	
3	
5	
8	
2	
13	
8	
10	
7	
7	
6	
2	
4	
7	
7	
7	
7	
7	
4	
8	
6	
5	
4	
5	
8	
6	
6	
6	
8	
4	
5	
2	
8	
6	
10	
2	
4	
6	
7	
10	
4	
6	
4	
7	
9	
7	
9	
2	
7	
13	
10	
6	
2	
11	
8	
7	
7	
9	
5	
7	
3	
4	
5	
5	
10	
5	
5	
5	
7	
6	
4	
7	
6	
4	
7	
11	
7	
12	
3	
7	
8	
5	
6	
7	
9	
9	
5	
7	
4	
4	
7	
5	
7	
2	
4	
8	
5	
8	
4	
3	
2	
8	
4	
3	
8	
5	
8	
6	
7	
5	
6	
11	
8	
5	
8	
7	
7	
6	
5	
6	
8	
3	
12	
6	
10	
5	
11	
2	
7	
7	
4	
7	
10	
5	
6	
5	
5	
13	
7	
4	
10	
8	
8	
6	
4	
8	
4	
7	
4	
5	
7	
11	
4	
5	
13	
3	
6	
5	
4	
5	
3	
6	
12	
8	
5	
5	
4	
9	
6	
7	
4	
6	
3	
7	
7	
4	
5	
12	
7	
14	
3	
8	
7	
3	
4	
9	
9	
9	
6	
9	
7	
7	
6	
6	
5	
6	
8	
7	
3	
4	
6	
6	
4	
3	
5	
7	
5	
2	
6	
5	
6	
8	
12	
4	
7	
4	
3	
9	
3	
14	
6	
11	
9	
10	
8	
11	
4	
7	
12	
5	
2	
5	
3	
5	
9	
5	
7	
6	
3	
9	
5	
8	
7	
2	
7	
8	
7	
6	
7	
3	
8	
3	
9	
9	
3	
8	
7	
4	
2	
11	
6	
6	
10	
5	
7	
7	
2	
6	
2	
3	
6	
7	
1	
2	
7	
6	
2	
5	
10	
7	
7	
10	
7	
5	
6	
7	
8	
4	
5	
9	
9	
7	
8	
8	
6	
6	
4	
5	
6	
3	
7	
3	
7	
5	
8	
6	
6	
5	
5	
6	
7	
5	
4	
4	
3	
8	
4	
9	
3	
7	
7	
7	
3	
5	
8	
4	
7	
8	
8	
8	
7	
3	
9	
11	
3	
4	
4	
7	
6	
2	
7	
10	
7	
5	
8	
7	
7	
3	
12	
6	
7	
4	
7	
10	
8	
4	
2	
6	
5	
4	
6	
6	
9	
9	
6	
9	
5	
7	
6	
2	
11	
7	
8	
10	
5	
8	
2	
6	
7	
6	
5	
2	
7	
3	
3	
3	
6	
3	
5	
2	
7	
6	
8	
9	
7	
9	
8	
10	
6	
10	
5	
5	
7	
10	
11	
8	
3	
6	
7	
13	
7	
6	
5	
8	
5	
4	
9	
10	
4	
5	
6	
3	
9	
10	
4	
5	
5	
5	
4	
8	
9	
3	
1	
5	
6	
5	
6	
4	
6	
10	
6	
6	
7	
5	
6	
3	
4	
8	
6	
9	
3	
8	
7	
8	
4	
5	
3	
4	
8	
4	
6	
6	
8	
6	
6	
3	
4	
11	
10	
7	
9	
3	
7	
3	
6	
11	
5	
4	
8	
7	
8	
9	
7	
8	
9	
7	
5	
11	
10	
6	
12	
9	
3	
6	
8	
10	
9	
9	
13	
5	
8	
3	
6	
3	
6	
5	
8	
9	
6	
4	
7	
10	
2	
2	
7	
4	
6	
8	
5	
4	
7	
3	
9	
8	
6	
7	
4	
5	
5	
4	
5	
12	
7	
9	
6	
5	
6	
6	
5	
4	
4	
6	
5	
7	
3	
8	
6	
3	
5	
7	
8	
5	
4	
8	
5	
8	
5	
10	
9	
8	
10	
10	
4	
3	
5	
5	
6	
9	
9	
3	
5	
9	
3	
6	
5	
7	
5	
5	
6	
5	
5	
8	
8	
7	
5	
5	
7	
14	
2	
6	
6	
8	
8	
6	
8	
6	
5	
3	
5	
5	
10	
7	
6	
8	
12	
3	
4	
7	
5	
5	
6	
5	
5	
10	
4	
10	
5	
4	
5	
6	
7	
5	
4	
6	
8	
4	
3	
4	
9	
4	
7	
9	
10	
4	
9	
11	
9	
8	
5	
6	
4	
2	
5	
3	
1	
4	
4	
11	
7	
7	
6	
5	
5	
4	
5	
3	
4	
4	
7	
6	
11	
6	
6	
6	
7	
5	
6	
2	
13	
5	
6	
7	
3	
4	
6	
7	
5	
5	
4	
11	
4	
6	
2	
2	
8	
10	
3	
6	
15	
7	
8	
4	
12	
5	
9	
8	
12	
7	
4	
8	
12	
5	
3	
8	
6	
6	
5	
2	
1	
4	
5	
7	
13	
8	
10	
8	
3	
4	
4	
10	
3	
8	
4	
7	
3	
7	
4	
7	
6	
7	
3	
6	
3	
12	
7	
9	
6	
8	
6	
12	
10	
3	
5	
6	
3	
7	
3	
6	
8	
3	
8	
2	
5	
7	
7	
5	
6	
8	
6	
7	
5	
7	
8	
4	
6	
5	
3	
7	
8	
4	
3	
5	
5	
7	
9	
6	
4	
4	
6	
5	
3	
5	
6	
6	
5	
6	
6	
9	
3	
4	
6	
7	
8	
5	
1	
7	
6	
7	
8	
4	
5	
7	
4	
10	
6	
3	
4	
6	
4	
6	
3	
5	
7	
4	
12	
7	
7	
5	
6	
9	
3	
1	
8	
8	
3	
7	
10	
4	
9	
6	
7	
5	
3	
5	
5	
3	
8	
6	
7	
6	
5	
11	
5	
9	
9	
5	
6	
9	
5	
8	
4	
6	
8	
14	
9	
7	
7	
5	
8	
10	
8	
11	
12	
5	
9	
17	
17	
16	
18	
15	
22	
21	
31	
27	
32	
43	
44	
53	
60	
83	
95	
105	
101	
115	
140	
175	
188	
211	
246	
274	
273	
353	
375	
420	
454	
470	
499	
575	
598	
597	
620	
692	
690	
703	
726	
774	
716	
825	
817	
816	
864	
852	
920	
895	
874	
879	
914	
881	
837	
930	
834	
938	
889	
889	
1000	
948	
964	
935	
913	
928	
968	
935	
945	
899	
921	
951	
918	
985	
938	
914	
917	
920	
929	
907	
898	
952	
889	
925	
906	
929	
925	
893	
922	
876	
881	
869	
838	
921	
925	
919	
900	
900	
860	
895	
911	
925	
839	
877	
919	
873	
896	
891	
850	
937	
933	
813	
855	
902	
897	
853	
920	
883	
925	
900	
854	
892	
877	
910	
879	
847	
854	
897	
868	
867	
859	
895	
837	
885	
802	
846	
886	
826	
801	
824	
881	
815	
858	
836	
847	
830	
795	
868	
857	
804	
815	
874	
813	
826	
822	
823	
806	
763	
858	
862	
875	
902	
868	
848	
847	
859	
852	
820	
802	
847	
790	
801	
833	
799	
855	
787	
770	
784	
823	
823	
779	
797	
787	
841	
809	
775	
829	
792	
811	
806	
855	
809	
814	
826	
820	
782	
857	
808	
729	
798	
844	
779	
767	
796	
833	
803	
831	
813	
823	
788	
821	
798	
766	
771	
824	
785	
730	
818	
825	
761	
768	
757	
770	
781	
741	
801	
795	
743	
780	
760	
750	
799	
781	
744	
752	
796	
765	
784	
738	
747	
814	
795	
769	
799	
771	
747	
744	
746	
752	
736	
759	
746	
746	
795	
780	
765	
771	
792	
722	
709	
735	
758	
744	
740	
760	
765	
745	
729	
777	
733	
767	
692	
762	
763	
731	
782	
730	
734	
734	
754	
723	
744	
729	
708	
717	
728	
772	
731	
720	
682	
760	
683	
700	
706	
708	
728	
713	
714	
696	
759	
737	
739	
751	
768	
694	
697	
723	
727	
691	
691	
701	
728	
722	
747	
702	
698	
673	
772	
689	
698	
675	
670	
735	
678	
748	
725	
697	
684	
711	
718	
701	
720	
734	
717	
719	
738	
694	
659	
706	
700	
706	
688	
673	
681	
745	
675	
703	
688	
671	
675	
757	
754	
661	
728	
673	
705	
707	
727	
703	
695	
691	
754	
648	
673	
707	
709	
677	
661	
669	
711	
669	
687	
682	
675	
648	
700	
675	
704	
706	
662	
686	
698	
651	
702	
701	
696	
666	
659	
687	
635	
682	
676	
717	
663	
658	
658	
669	
618	
671	
668	
642	
669	
658	
707	
674	
658	
640	
650	
627	
722	
652	
629	
656	
690	
626	
601	
650	
670	
687	
661	
656	
676	
646	
655	
607	
641	
727	
670	
635	
605	
623	
615	
659	
660	
653	
638	
658	
652	
637	
652	
591	
634	
627	
596	
675	
630	
606	
587	
603	
650	
649	
618	
666	
631	
669	
639	
650	
653	
630	
599	
673	
640	
652	
649	
649	
625	
609	
636	
602	
620	
641	
664	
632	
650	
654	
664	
614	
607	
636	
575	
600	
618	
675	
657	
644	
652	
642	
632	
637	
659	
627	
607	
639	
592	
636	
594	
570	
647	
603	
638	
594	
640	
625	
625	
602	
566	
622	
624	
610	
652	
622	
592	
589	
619	
587	
603	
612	
618	
592	
609	
627	
584	
616	
603	
639	
569	
588	
633	
622	
658	
645	
644	
577	
601	
591	
599	
598	
628	
611	
622	
568	
668	
588	
587	
615	
573	
598	
624	
606	
599	
590	
591	
553	
653	
603	
602	
565	
585	
565	
557	
561	
571	
577	
599	
562	
594	
605	
617	
614	
573	
580	
617	
564	
585	
543	
595	
568	
566	
541	
563	
569	
579	
584	
607	
592	
579	
569	
600	
585	
563	
594	
564	
556	
629	
593	
561	
638	
606	
580	
542	
584	
588	
552	
605	
517	
588	
571	
578	
605	
598	
549	
532	
548	
551	
584	
576	
533	
539	
579	
584	
609	
526	
535	
604	
570	
548	
565	
599	
589	
541	
555	
576	
544	
547	
558	
582	
563	
581	
592	
535	
547	
515	
548	
543	
577	
568	
551	
558	
546	
545	
571	
558	
533	
543	
543	
569	
540	
525	
525	
561	
556	
565	
567	
538	
557	
531	
558	
561	
532	
551	
577	
518	
560	
527	
543	
511	
568	
555	
561	
564	
538	
528	
557	
538	
524	
526	
545	
524	
566	
538	
553	
535	
570	
542	
551	
526	
595	
510	
517	
567	
560	
522	
519	
509	
534	
556	
504	
521	
567	
512	
522	
546	
535	
537	
523	
494	
550	
577	
536	
515	
543	
514	
543	
546	
527	
527	
538	
484	
538	
537	
516	
518	
513	
532	
534	
496	
555	
542	
517	
504	
504	
498	
519	
507	
458	
504	
489	
503	
537	
525	
496	
541	
508	
526	
470	
497	
501	
530	
511	
516	
542	
550	
490	
530	
484	
508	
503	
534	
492	
470	
522	
513	
554	
532	
525	
525	
486	
534	
474	
519	
525	
551	
537	
498	
477	
497	
479	
549	
495	
508	
494	
503	
480	
497	
538	
492	
476	
538	
498	
531	
502	
496	
507	
517	
503	
474	
503	
508	
496	
497	
507	
499	
472	
511	
488	
550	
477	
530	
521	
497	
484	
538	
478	
496	
541	
557	
531	
490	
516	
457	
507	
487	
485	
506	
505	
515	
481	
492	
495	
489	
465	
493	
491	
496	
467	
514	
507	
490	
495	
458	
502	
489	
493	
507	
492	
498	
484	
475	
478	
486	
468	
475	
506	
471	
450	
484	
530	
505	
526	
468	
491	
500	
478	
509	
480	
496	
484	
488	
491	
475	
445	
486	
487	
468	
428	
468	
533	
485	
493	
481	
502	
470	
520	
471	
475	
507	
484	
484	
479	
483	
466	
511	
488	
435	
427	
467	
470	
481	
503	
475	
463	
478	
554	
471	
484	
475	
446	
473	
475	
468	
471	
437	
469	
505	
435	
490	
502	
477	
434	
444	
460	
435	
413	
453	
497	
486	
467	
430	
475	
458	
429	
490	
404	
462	
463	
459	
441	
456	
493	
493	
483	
454	
440	
447	
506	
448	
460	
455	
482	
473	
477	
473	
426	
463	
450	
490	
440	
454	
430	
423	
447	
471	
500	
496	
490	
476	
464	
425	
458	
424	
469	
467	
414	
432	
457	
463	
421	
458	
433	
443	
421	
435	
421	
437	
463	
443	
434	
477	
484	
462	
470	
437	
454	
444	
419	
459	
437	
455	
464	
454	
403	
438	
446	
455	
460	
494	
443	
453	
442	
442	
438	
431	
466	
427	
432	
445	
419	
409	
446	
461	
437	
439	
444	
454	
448	
445	
445	
444	
446	
432	
454	
431	
443	
477	
453	
431	
414	
470	
438	
404	
437	
437	
434	
468	
423	
453	
432	
438	
458	
460	
426	
447	
441	
423	
460	
446	
418	
420	
384	
433	
414	
458	
419	
419	
432	
438	
423	
432	
439	
457	
450	
436	
437	
401	
389	
432	
399	
424	
440	
431	
449	
398	
401	
404	
401	
479	
429	
439	
432	
438	
434	
421	
437	
430	
395	
428	
435	
416	
398	
441	
436	
389	
412	
396	
420	
400	
397	
422	
406	
448	
448	
407	
416	
415	
352	
405	
438	
416	
396	
392	
410	
431	
409	
447	
426	
435	
399	
417	
438	
401	
423	
389	
375	
371	
413	
409	
390	
390	
412	
380	
429	
420	
453	
427	
395	
440	
404	
407	
425	
415	
388	
410	
382	
383	
377	
414	
415	
358	
410	
409	
397	
403	
404	
401	
462	
388	
422	
406	
366	
369	
419	
414	
407	
383	
407	
416	
387	
409	
412	
401	
385	
363	
424	
401	
418	
406	
401	
410	
428	
400	
414	
393	
401	
404	
406	
374	
369	
399	
430	
402	
389	
370	
402	
364	
366	
393	
382	
386	
382	
407	
397	
371	
395	
374	
368	
382	
400	
406	
414	
387	
397	
376	
442	
370	
392	
425	
408	
376	
426	
357	
401	
370	
392	
408	
404	
384	
371	
424	
409	
387	
418	
389	
409	
376	
365	
404	
398	
411	
372	
407	
372	
370	
358	
374	
388	
381	
394	
411	
368	
395	
363	
412	
377	
370	
373	
405	
415	
370	
361	
383	
387	
368	
372	
383	
373	
352	
362	
384	
366	
375	
401	
363	
367	
382	
349	
390	
397	
365	
373	
376	
324	
392	
346	
369	
408	
360	
342	
374	
388	
375	
336	
391	
396	
404	
366	
328	
350	
381	
414	
366	
385	
373	
395	
378	
345	
364	
371	
354	
372	
375	
391	
390	
406	
396	
372	
357	
386	
379	
340	
386	
370	
373	
336	
388	
392	
386	
355	
371	
373	
389	
409	
371	
357	
347	
398	
357	
369	
366	
359	
348	
349	
361	
376	
374	
390	
380	
348	
369	
348	
365	
366	
384	
406	
355	
350	
351	
357	
370	
372	
330	
359	
371	
405	
370	
355	
358	
317	
342	
373	
350	
403	
352	
392	
361	
357	
397	
357	
360	
371	
367	
357	
346	
351	
359	
359	
371	
345	
375	
364	
380	
362	
348	
350	
333	
381	
380	
336	
364	
344	
342	
349	
372	
352	
378	
356	
375	
330	
334	
373	
358	
345	
364	
391	
359	
365	
365	
354	
338	
367	
366	
355	
385	
354	
365	
367	
334	
369	
320	
366	
348	
343	
363	
380	
348	
330	
362	
352	
347	
360	
355	
351	
377	
351	
395	
359	
339	
331	
361	
364	
345	
349	
334	
366	
361	
352	
348	
328	
354	
356	
338	
355	
366	
370	
340	
344	
363	
337	
346	
342	
358	
354	
337	
333	
330	
315	
352	
326	
351	
321	
317	
323	
351	
360	
314	
324	
354	
331	
326	
339	
340	
334	
329	
365	
342	
339	
383	
345	
342	
343	
370	
322	
348	
328	
336	
353	
315	
333	
318	
346	
327	
342	
317	
343	
306	
307	
357	
324	
310	
343	
355	
295	
313	
369	
326	
337	
321	
354	
342	
313	
287	
358	
290	
361	
353	
351	
298	
299	
308	
336	
330	
347	
326	
326	
328	
325	
328	
322	
327	
354	
327	
309	
319	
331	
334	
346	
310	
345	
340	
336	
300	
345	
348	
306	
335	
352	
334	
345	
303	
314	
323	
336	
330	
314	
339	
356	
322	
362	
350	
308	
326	
319	
347	
314	
329	
314	
302	
330	
283	
347	
317	
314	
344	
320	
342	
319	
332	
306	
311	
337	
312	
327	
338	
325	
337	
354	
300	
333	
341	
300	
320	
287	
340	
321	
333	
322	
331	
354	
315	
298	
315	
318	
307	
335	
319	
302	
300	
298	
330	
321	
320	
334	
307	
304	
294	
327	
293	
316	
297	
303	
301	
312	
324	
335	
306	
343	
342	
328	
318	
303	
335	
339	
339	
311	
318	
319	
315	
317	
320	
311	
310	
318	
326	
318	
311	
319	
323	
312	
294	
293	
290	
332	
315	
321	
287	
316	
286	
276	
319	
293	
302	
339	
318	
281	
313	
319	
336	
322	
320	
275	
335	
331	
291	
314	
315	
308	
323	
321	
301	
295	
285	
276	
334	
312	
317	
325	
323	
325	
324	
309	
275	
330	
303	
328	
312	
301	
303	
306	
288	
323	
319	
313	
305	
312	
316	
308	
331	
288	
344	
263	
290	
301	
303	
318	
338	
330	
311	
326	
311	
308	
308	
298	
312	
279	
304	
313	
285	
304	
298	
332	
294	
262	
311	
303	
308	
289	
315	
300	
308	
258	
326	
292	
302	
276	
304	
316	
278	
312	
314	
293	
298	
299	
304	
295	
305	
292	
260	
293	
275	
261	
303	
287	
296	
304	
301	
278	
315	
287	
306	
298	
330	
298	
291	
257	
277	
327	
294	
287	
276	
346	
300	
326	
333	
273	
289	
266	
271	
307	
297	
291	
291	
281	
306	
312	
310	
295	
291	
287	
293	
290	
290	
290	
308	
317	
307	
301	
289	
305	
285	
283	
310	
288	
303	
301	
292	
312	
281	
270	
295	
290	
304	
314	
288	
281	
254	
287	
276	
292	
265	
294	
265	
270	
280	
292	
258	
308	
293	
255	
280	
283	
268	
299	
283	
323	
265	
284	
271	
279	
295	
296	
328	
254	
301	
286	
289	
267	
276	
275	
269	
248	
272	
281	
301	
284	
289	
317	
263	
248	
275	
281	
270	
249	
327	
307	
291	
262	
279	
261	
273	
307	
287	
261	
295	
291	
281	
293	
262	
291	
272	
255	
295	
288	
306	
289	
293	
269	
275	
310	
287	
312	
265	
272	
274	
317	
292	
298	
271	
278	
305	
276	
300	
318	
294	
279	
286	
292	
301	
269	
280	
270	
284	
269	
256	
305	
307	
245	
264	
260	
305	
268	
284	
294	
269	
266	
296	
265	
290	
272	
261	
268	
280	
283	
276	
261	
284	
296	
269	
294	
277	
254	
284	
272	
260	
245	
287	
270	
278	
262	
272	
255	
272	
274	
265	
274	
280	
301	
264	
285	
303	
302	
277	
301	
252	
286	
266	
252	
261	
261	
256	
298	
288	
251	
293	
294	
271	
257	
266	
272	
276	
247	
288	
254	
281	
298	
286	
296	
271	
274	
288	
259	
277	
268	
260	
280	
268	
265	
279	
278	
279	
293	
265	
280	
278	
273	
265	
256	
285	
253	
298	
259	
297	
258	
284	
250	
290	
262	
279	
268	
265	
277	
278	
253	
254	
277	
267	
277	
299	
279	
280	
294	
265	
261	
250	
269	
275	
266	
266	
275	
242	
252	
289	
242	
267	
278	
266	
252	
249	
230	
256	
287	
259	
262	
261	
280	
253	
251	
255	
226	
268	
252	
308	
261	
281	
299	
255	
235	
230	
278	
288	
263	
263	
269	
263	
265	
249	
260	
255	
267	
257	
239	
249	
259	
265	
269	
253	
256	
258	
266	
251	
271	
243	
257	
272	
287	
251	
280	
260	
286	
268	
259	
224	
252	
292	
275	
242	
259	
248	
268	
277	
251	
270	
238	
264	
236	
245	
271	
282	
262	
226	
256	
266	
260	
252	
229	
256	
258	
273	
268	
248	
251	
249	
269	
255	
279	
240	
243	
259	
245	
270	
246	
260	
263	
244	
240	
261	
244	
262	
263	
279	
254	
279	
251	
255	
277	
258	
262	
244	
257	
261	
259	
268	
249	
269	
279	
263	
224	
271	
255	
259	
250	
251	
240	
252	
244	
241	
257	
234	
237	
275	
258	
261	
264	
256	
252	
256	
296	
255	
256	
276	
252	
290	
244	
262	
244	
272	
262	
260	
245	
241	
238	
261	
252	
251	
230	
252	
235	
247	
236	
236	
267	
227	
265	
251	
262	
228	
291	
261	
243	
263	
261	
221	
254	
243	
221	
248	
247	
242	
229	
248	
220	
261	
258	
250	
260	
259	
262	
264	
253	
254	
243	
240	
261	
242	
243	
223	
245	
257	
237	
244	
241	
223	
255	
270	
255	
226	
230	
246	
234	
236	
222	
218	
232	
248	
235	
273	
220	
270	
244	
258	
237	
230	
231	
258	
243	
249	
232	
246	
233	
224	
242	
245	
249	
240	
244	
241	
249	
263	
279	
213	
203	
216	
229	
215	
214	
243	
261	
264	
249	
258	
236	
235	
232	
214	
237	
241	
226	
228	
268	
260	
246	
238	
254	
247	
224	
224	
277	
222	
222	
239	
231	
225	
214	
221	
233	
241	
248	
228	
230	
200	
214	
231	
243	
224	
244	
210	
256	
230	
241	
221	
242	
239	
220	
228	
244	
246	
231	
268	
252	
219	
221	
251	
263	
234	
259	
199	
253	
242	
210	
223	
220	
216	
234	
244	
235	
236	
223	
229	
212	
225	
236	
233	
234	
240	
248	
239	
213	
230	
243	
212	
217	
219	
242	
214	
233	
244	
228	
237	
250	
236	
222	
249	
204	
238	
235	
223	
245	
216	
231	
232	
220	
244	
232	
218	
210	
231	
209	
235	
199	
231	
211	
242	
217	
234	
225	
246	
226	
245	
219	
221	
242	
224	
230	
185	
214	
243	
214	
220	
233	
201	
224	
224	
204	
220	
204	
222	
217	
250	
217	
201	
233	
241	
242	
232	
250	
225	
225	
215	
216	
249	
222	
225	
206	
212	
211	
231	
204	
223	
211	
216	
232	
229	
235	
245	
251	
228	
229	
205	
233	
257	
235	
232	
200	
210	
230	
216	
205	
221	
242	
243	
227	
221	
213	
220	
233	
225	
233	
222	
224	
214	
203	
222	
214	
194	
247	
206	
233	
210	
214	
226	
221	
225	
213	
212	
190	
213	
226	
229	
229	
229	
237	
227	
218	
232	
229	
236	
233	
218	
217	
213	
204	
222	
214	
204	
213	
191	
206	
233	
217	
206	
221	
215	
228	
227	
198	
225	
245	
233	
225	
220	
215	
230	
204	
266	
232	
234	
218	
208	
216	
198	
219	
195	
225	
228	
200	
250	
206	
217	
207	
201	
222	
211	
204	
212	
181	
199	
224	
198	
228	
225	
214	
211	
206	
217	
205	
211	
219	
217	
215	
209	
217	
173	
172	
212	
210	
202	
209	
205	
188	
213	
207	
234	
223	
229	
220	
219	
191	
214	
209	
226	
204	
214	
193	
203	
212	
227	
221	
216	
222	
205	
212	
202	
253	
230	
237	
186	
202	
220	
249	
224	
203	
200	
209	
232	
200	
218	
216	
194	
207	
212	
204	
210	
206	
209	
193	
211	
182	
217	
224	
218	
177	
198	
187	
216	
234	
208	
226	
222	
222	
217	
214	
219	
219	
197	
206	
228	
211	
182	
179	
191	
229	
182	
219	
243	
235	
184	
183	
188	
215	
196	
187	
218	
213	
218	
215	
209	
190	
220	
200	
199	
207	
176	
213	
211	
219	
195	
199	
210	
214	
200	
207	
194	
203	
203	
191	
198	
203	
216	
184	
206	
223	
208	
200	
191	
218	
184	
193	
179	
210	
200	
215	
201	
192	
212	
202	
201	
222	
198	
188	
198	
202	
203	
212	
209	
200	
168	
202	
198	
181	
205	
197	
183	
232	
215	
178	
210	
207	
198	
204	
204	
172	
225	
201	
203	
185	
202	
231	
195	
194	
208	
209	
238	
198	
206	
173	
205	
198	
238	
204	
191	
200	
220	
180	
199	
182	
209	
222	
184	
219	
206	
228	
249	
191	
206	
168	
200	
194	
165	
228	
223	
215	
201	
188	
214	
208	
201	
181	
214	
213	
205	
186	
211	
203	
193	
215	
197	
201	
198	
199	
178	
195	
187	
206	
173	
196	
186	
216	
182	
202	
210	
197	
167	
201	
205	
216	
206	
195	
202	
208	
213	
192	
212	
202	
192	
211	
204	
201	
185	
204	
210	
187	
198	
209	
192	
172	
197	
193	
210	
202	
199	
187	
174	
183	
199	
184	
190	
202	
209	
190	
210	
212	
164	
200	
197	
189	
190	
223	
202	
196	
177	
212	
181	
205	
156	
196	
189	
190	
182	
193	
201	
183	
172	
184	
180	
196	
211	
204	
196	
174	
209	
185	
206	
218	
191	
200	
203	
172	
205	
209	
183	
180	
187	
194	
156	
189	
204	
190	
180	
196	
214	
182	
187	
196	
174	
182	
190	
156	
200	
163	
202	
194	
197	
183	
203	
170	
200	
208	
197	
189	
183	
197	
175	
176	
165	
192	
183	
196	
183	
201	
193	
189	
185	
209	
198	
175	
176	
175	
182	
204	
173	
169	
182	
188	
195	
218	
161	
173	
222	
189	
204	
214	
207	
199	
190	
195	
183	
173	
206	
177	
197	
192	
163	
201	
193	
176	
177	
156	
202	
199	
184	
191	
182	
189	
190	
166	
213	
200	
189	
216	
178	
192	
195	
196	
192	
197	
187	
190	
181	
218	
172	
175	
195	
184	
157	
174	
192	
180	
198	
193	
176	
209	
193	
187	
175	
191	
192	
184	
180	
198	
166	
175	
185	
186	
165	
192	
199	
168	
207	
175	
166	
202	
216	
181	
165	
201	
194	
172	
180	
187	
195	
186	
173	
193	
154	
188	
183	
207	
182	
181	
169	
196	
191	
187	
203	
199	
175	
165	
174	
189	
182	
172	
180	
168	
165	
186	
192	
195	
176	
197	
171	
180	
197	
182	
163	
175	
185	
160	
177	
161	
188	
184	
168	
174	
184	
181	
175	
186	
170	
164	
179	
174	
162	
154	
175	
163	
175	
194	
162	
180	
177	
156	
154	
179	
172	
184	
162	
181	
187	
171	
170	
169	
168	
159	
179	
206	
169	
166	
178	
194	
146	
193	
184	
163	
156	
176	
165	
161	
190	
197	
190	
172	
161	
157	
217	
192	
177	
187	
169	
157	
184	
177	
168	
174	
179	
201	
175	
174	
189	
166	
198	
182	
179	
176	
194	
181	
166	
175	
179	
185	
181	
174	
170	
167	
152	
166	
171	
178	
187	
179	
157	
189	
178	
162	
185	
177	
173	
140	
162	
185	
186	
159	
170	
207	
172	
188	
207	
165	
176	
170	
158	
183	
179	
160	
165	
173	
148	
159	
162	
176	
176	
184	
173	
172	
183	
179	
167	
172	
184	
208	
176	
185	
157	
162	
165	
188	
164	
172	
189	
159	
182	
160	
184	
175	
154	
150	
160	
162	
164	
206	
158	
166	
174	
171	
155	
185	
164	
171	
166	
169	
166	
172	
174	
158	
163	
180	
168	
151	
167	
187	
182	
172	
168	
160	
178	
175	
173	
159	
174	
180	
177	
153	
167	
192	
186	
180	
177	
163	
165	
180	
174	
171	
159	
151	
141	
169	
170	
174	
177	
167	
178	
169	
145	
172	
164	
181	
167	
166	
166	
145	
164	
163	
160	
187	
174	
167	
165	
165	
160	
172	
182	
180	
167	
182	
167	
166	
171	
173	
170	
157	
178	
171	
158	
153	
163	
142	
177	
152	
150	
178	
161	
160	
179	
182	
157	
158	
180	
175	
177	
176	
177	
168	
162	
149	
159	
158	
164	
156	
183	
169	
164	
159	
159	
165	
187	
179	
168	
156	
159	
169	
161	
157	
154	
155	
168	
134	
154	
171	
144	
166	
165	
173	
161	
161	
179	
185	
156	
178	
174	
186	
160	
166	
179	
166	
168	
170	
168	
156	
155	
172	
180	
173	
166	
137	
143	
171	
169	
145	
173	
175	
155	
158	
167	
178	
168	
179	
147	
170	
157	
168	
172	
171	
159	
171	
168	
163	
173	
166	
160	
178	
165	
167	
149	
174	
165	
163	
164	
161	
177	
160	
141	
153	
163	
134	
167	
156	
154	
162	
139	
160	
151	
156	
173	
150	
141	
162	
141	
181	
175	
168	
144	
156	
158	
168	
136	
146	
140	
155	
165	
160	
168	
179	
180	
159	
151	
171	
162	
157	
165	
141	
152	
161	
169	
183	
141	
165	
171	
157	
167	
146	
169	
128	
148	
171	
139	
156	
160	
152	
154	
163	
187	
154	
166	
135	
166	
142	
162	
163	
164	
153	
154	
161	
167	
164	
158	
153	
157	
158	
182	
149	
174	
159	
143	
141	
151	
147	
184	
153	
182	
143	
170	
137	
167	
147	
164	
174	
143	
157	
170	
181	
161	
155	
147	
157	
151	
160	
149	
155	
166	
159	
157	
154	
167	
157	
156	
155	
162	
153	
160	
177	
137	
130	
130	
143	
165	
136	
153	
153	
133	
171	
145	
158	
150	
155	
151	
158	
157	
153	
152	
169	
172	
130	
171	
169	
190	
162	
177	
158	
144	
153	
150	
127	
137	
159	
156	
158	
151	
182	
147	
159	
147	
166	
151	
168	
142	
141	
144	
168	
146	
172	
137	
141	
161	
142	
170	
147	
159	
158	
146	
161	
143	
174	
137	
152	
170	
172	
152	
142	
153	
155	
169	
159	
134	
150	
149	
143	
147	
163	
160	
170	
135	
168	
139	
124	
162	
160	
149	
146	
165	
170	
160	
157	
145	
159	
156	
151	
145	
159	
165	
149	
164	
149	
163	
157	
154	
162	
159	
152	
160	
155	
155	
136	
150	
161	
172	
168	
169	
159	
152	
144	
171	
147	
150	
136	
156	
146	
149	
166	
147	
161	
166	
164	
166	
152	
144	
144	
141	
162	
149	
159	
154	
166	
163	
149	
138	
129	
149	
145	
161	
159	
125	
153	
172	
155	
169	
152	
156	
184	
147	
142	
149	
129	
138	
147	
162	
141	
184	
161	
147	
147	
165	
141	
140	
152	
175	
137	
168	
169	
141	
126	
150	
154	
156	
141	
134	
137	
148	
165	
159	
138	
138	
143	
147	
135	
128	
162	
144	
165	
138	
148	
163	
122	
140	
135	
156	
138	
155	
133	
140	
136	
136	
176	
162	
145	
120	
151	
145	
160	
159	
130	
144	
160	
148	
148	
141	
127	
137	
147	
142	
150	
149	
145	
126	
157	
169	
127	
139	
137	
143	
159	
164	
146	
139	
137	
135	
153	
133	
140	
150	
149	
156	
152	
150	
130	
142	
142	
141	
156	
135	
126	
150	
151	
135	
130	
141	
141	
150	
146	
118	
137	
157	
125	
166	
140	
183	
159	
153	
150	
143	
149	
145	
148	
141	
135	
137	
144	
145	
144	
137	
118	
139	
157	
145	
157	
157	
146	
136	
113	
129	
154	
156	
140	
139	
141	
145	
128	
164	
133	
149	
139	
149	
147	
160	
127	
153	
143	
127	
158	
138	
147	
136	
133	
143	
149	
128	
139	
132	
143	
137	
144	
144	
127	
131	
137	
157	
138	
151	
132	
138	
120	
114	
137	
140	
141	
147	
135	
129	
141	
137	
150	
162	
132	
139	
142	
132	
129	
116	
124	
132	
144	
136	
162	
148	
146	
151	
150	
130	
132	
155	
133	
131	
123	
144	
139	
156	
128	
155	
139	
136	
160	
133	
152	
130	
144	
142	
127	
144	
115	
138	
138	
155	
126	
141	
145	
165	
149	
147	
147	
153	
130	
142	
130	
123	
137	
156	
128	
132	
143	
141	
119	
129	
157	
143	
129	
146	
143	
174	
129	
145	
127	
144	
144	
133	
120	
143	
126	
131	
163	
161	
133	
125	
148	
127	
154	
127	
142	
145	
122	
161	
143	
122	
141	
138	
127	
132	
130	
150	
134	
156	
142	
147	
136	
145	
138	
172	
150	
132	
131	
150	
140	
129	
138	
133	
142	
124	
128	
144	
119	
126	
138	
142	
134	
154	
126	
154	
136	
139	
143	
132	
127	
129	
120	
150	
146	
133	
137	
141	
139	
143	
142	
148	
149	
141	
126	
150	
136	
113	
138	
134	
152	
129	
137	
148	
139	
141	
145	
140	
152	
139	
155	
147	
135	
135	
133	
151	
126	
142	
126	
149	
145	
149	
151	
110	
138	
140	
136	
132	
142	
144	
153	
117	
161	
128	
142	
143	
137	
131	
126	
158	
134	
145	
160	
138	
133	
136	
144	
120	
149	
135	
131	
122	
115	
140	
143	
122	
131	
137	
104	
117	
120	
127	
125	
130	
123	
154	
145	
128	
118	
122	
121	
142	
150	
132	
132	
137	
124	
136	
129	
130	
148	
139	
135	
146	
139	
134	
158	
139	
146	
134	
136	
121	
143	
130	
137	
130	
156	
125	
133	
111	
153	
128	
121	
143	
132	
131	
108	
138	
136	
127	
136	
156	
145	
143	
138	
132	
137	
121	
142	
126	
136	
136	
150	
129	
118	
115	
133	
133	
139	
105	
131	
133	
127	
145	
106	
128	
143	
147	
142	
133	
112	
129	
105	
104	
137	
130	
139	
137	
132	
123	
131	
113	
117	
117	
120	
133	
128	
125	
139	
146	
158	
119	
126	
132	
130	
132	
122	
119	
130	
131	
124	
129	
105	
122	
128	
121	
112	
151	
154	
129	
143	
136	
129	
132	
128	
125	
120	
143	
159	
136	
120	
141	
113	
122	
138	
132	
132	
124	
134	
113	
130	
117	
131	
118	
144	
118	
129	
128	
112	
111	
118	
119	
105	
134	
146	
138	
143	
122	
143	
119	
133	
113	
135	
125	
122	
104	
119	
117	
140	
116	
128	
123	
123	
135	
137	
133	
133	
115	
133	
129	
146	
138	
139	
99	
112	
141	
129	
124	
110	
123	
119	
121	
148	
128	
103	
125	
144	
119	
120	
108	
116	
97	
151	
126	
134	
125	
120	
106	
131	
116	
104	
111	
128	
100	
106	
139	
121	
124	
111	
127	
128	
118	
128	
106	
116	
137	
132	
127	
144	
128	
126	
125	
115	
119	
115	
119	
119	
128	
124	
123	
143	
134	
111	
117	
96	
112	
131	
113	
133	
133	
118	
125	
108	
114	
120	
130	
118	
114	
93	
110	
112	
114	
125	
108	
119	
119	
128	
129	
123	
149	
131	
136	
118	
116	
116	
117	
134	
124	
116	
143	
141	
147	
136	
117	
145	
133	
123	
119	
119	
118	
112	
137	
125	
123	
146	
124	
124	
121	
169	
110	
120	
105	
123	
117	
121	
89	
129	
111	
113	
120	
117	
110	
110	
115	
131	
114	
129	
113	
108	
113	
127	
100	
117	
126	
130	
121	
117	
120	
118	
125	
107	
114	
118	
137	
110	
117	
100	
123	
122	
122	
126	
119	
118	
135	
144	
134	
132	
119	
139	
126	
118	
133	
111	
117	
132	
125	
131	
118	
108	
111	
125	
126	
115	
131	
143	
125	
125	
112	
119	
123	
115	
107	
135	
126	
122	
112	
115	
119	
122	
119	
108	
119	
111	
115	
122	
145	
107	
120	
118	
112	
118	
114	
117	
125	
110	
109	
113	
124	
107	
131	
103	
122	
113	
125	
117	
119	
99	
143	
104	
123	
127	
106	
126	
152	
128	
121	
106	
119	
127	
129	
118	
119	
117	
116	
130	
116	
116	
112	
144	
129	
108	
106	
122	
115	
107	
128	
111	
141	
122	
108	
108	
141	
116	
104	
116	
124	
125	
130	
127	
117	
124	
120	
137	
117	
123	
126	
110	
128	
125	
142	
114	
121	
124	
116	
117	
112	
97	
134	
122	
118	
101	
122	
106	
131	
135	
107	
112	
121	
113	
122	
117	
122	
115	
120	
101	
101	
121	
101	
127	
113	
105	
123	
127	
101	
113	
118	
110	
92	
135	
120	
108	
113	
127	
128	
109	
105	
117	
107	
116	
110	
126	
114	
120	
125	
106	
111	
102	
138	
122	
116	
120	
113	
109	
118	
135	
111	
117	
118	
108	
104	
115	
126	
107	
131	
122	
114	
136	
113	
122	
129	
107	
111	
122	
103	
119	
115	
116	
112	
110	
129	
122	
121	
104	
123	
122	
114	
115	
99	
95	
102	
131	
104	
107	
110	
97	
107	
104	
120	
109	
125	
111	
110	
105	
125	
117	
128	
102	
113	
126	
114	
120	
117	
112	
110	
106	
101	
121	
134	
107	
122	
114	
123	
111	
117	
109	
108	
130	
110	
101	
109	
118	
120	
109	
120	
116	
120	
98	
92	
127	
114	
107	
107	
120	
118	
108	
98	
116	
106	
109	
111	
108	
115	
126	
117	
117	
114	
127	
133	
127	
116	
114	
96	
131	
115	
117	
122	
124	
124	
115	
115	
84	
118	
103	
117	
109	
89	
116	
95	
115	
111	
112	
109	
116	
126	
121	
100	
116	
121	
108	
119	
95	
109	
105	
119	
126	
104	
117	
103	
132	
117	
111	
110	
103	
100	
120	
121	
122	
135	
97	
114	
103	
129	
102	
94	
120	
125	
122	
102	
102	
117	
118	
115	
119	
111	
123	
113	
107	
97	
88	
107	
106	
92	
113	
100	
95	
112	
116	
115	
107	
116	
101	
103	
119	
115	
108	
112	
108	
122	
112	
107	
101	
88	
111	
114	
99	
137	
116	
108	
126	
126	
110	
115	
107	
112	
120	
111	
111	
118	
123	
117	
111	
117	
108	
89	
110	
123	
96	
115	
108	
122	
141	
122	
103	
116	
89	
94	
100	
110	
127	
114	
112	
102	
115	
107	
102	
124	
98	
99	
112	
106	
96	
112	
117	
114	
136	
113	
107	
101	
118	
124	
120	
104	
102	
113	
89	
109	
103	
107	
106	
107	
122	
104	
94	
102	
110	
102	
102	
95	
148	
99	
105	
118	
99	
121	
120	
104	
123	
118	
116	
92	
106	
99	
99	
103	
114	
124	
109	
94	
109	
110	
99	
108	
120	
108	
107	
116	
112	
109	
108	
88	
90	
128	
103	
120	
92	
102	
104	
109	
114	
115	
105	
139	
93	
96	
89	
118	
93	
118	
103	
105	
111	
105	
99	
109	
100	
94	
110	
84	
108	
112	
89	
101	
117	
110	
118	
122	
102	
114	
106	
108	
133	
113	
111	
121	
104	
106	
114	
101	
121	
114	
109	
99	
130	
100	
103	
84	
105	
110	
113	
106	
119	
98	
112	
90	
100	
102	
100	
93	
95	
100	
120	
85	
111	
106	
96	
103	
85	
98	
121	
102	
99	
113	
123	
108	
126	
107	
93	
110	
98	
115	
114	
100	
105	
103	
89	
106	
109	
91	
107	
100	
94	
102	
88	
106	
101	
94	
98	
120	
106	
127	
112	
113	
96	
96	
116	
100	
101	
107	
112	
107	
116	
132	
105	
88	
125	
88	
103	
123	
104	
98	
113	
104	
111	
87	
101	
75	
112	
93	
100	
110	
98	
90	
103	
100	
89	
108	
106	
95	
90	
108	
101	
122	
99	
96	
116	
118	
113	
110	
94	
102	
107	
96	
84	
104	
95	
94	
102	
96	
104	
96	
104	
116	
80	
94	
96	
114	
102	
121	
108	
117	
117	
95	
93	
98	
98	
79	
114	
100	
105	
101	
96	
94	
97	
100	
114	
98	
98	
87	
118	
114	
97	
100	
102	
107	
95	
103	
83	
112	
105	
106	
94	
90	
105	
105	
88	
105	
101	
95	
110	
109	
94	
104	
105	
109	
103	
115	
110	
108	
99	
109	
133	
86	
112	
94	
119	
105	
102	
101	
113	
103	
115	
95	
86	
91	
91	
99	
103	
108	
124	
100	
95	
102	
106	
109	
110	
109	
107	
103	
97	
98	
94	
68	
108	
91	
84	
106	
103	
98	
117	
98	
90	
102	
88	
94	
103	
104	
93	
102	
124	
93	
108	
106	
99	
94	
85	
107	
111	
92	
91	
98	
117	
102	
102	
86	
92	
97	
87	
97	
104	
81	
114	
85	
108	
96	
91	
107	
96	
86	
92	
106	
99	
99	
104	
110	
87	
112	
104	
100	
103	
120	
112	
86	
97	
91	
125	
97	
98	
90	
96	
113	
104	
125	
107	
87	
78	
96	
100	
84	
91	
99	
89	
110	
94	
98	
99	
106	
90	
119	
110	
99	
95	
106	
91	
104	
93	
103	
108	
109	
94	
89	
88	
97	
115	
101	
112	
99	
103	
89	
113	
102	
105	
93	
110	
99	
83	
99	
109	
97	
105	
98	
95	
104	
100	
109	
107	
98	
102	
93	
95	
100	
83	
68	
95	
93	
93	
91	
93	
105	
91	
83	
84	
102	
89	
91	
83	
86	
97	
101	
90	
98	
82	
77	
100	
109	
97	
92	
101	
107	
96	
102	
86	
113	
97	
91	
100	
91	
106	
94	
85	
75	
112	
95	
107	
104	
77	
83	
101	
95	
81	
90	
100	
113	
97	
89	
115	
97	
98	
93	
116	
76	
77	
94	
109	
100	
93	
103	
94	
