#PicoHarp 300  Histogram Data			05/25/2022 04:58:42 PM
#channels per curve
31250
#display curve no.
0	
#memory block no.
0	
#ns/channel
0.0320	
#counts
4	
4	
4	
3	
3	
4	
5	
3	
3	
4	
7	
4	
2	
2	
6	
0	
7	
1	
5	
4	
5	
6	
4	
3	
3	
4	
2	
7	
3	
5	
5	
6	
3	
4	
5	
3	
4	
4	
6	
3	
0	
3	
7	
6	
0	
4	
3	
3	
3	
4	
5	
2	
5	
3	
5	
0	
7	
1	
5	
3	
3	
2	
5	
3	
4	
2	
4	
4	
2	
6	
5	
3	
4	
2	
6	
8	
4	
4	
4	
4	
4	
3	
1	
5	
2	
4	
3	
3	
1	
3	
3	
3	
4	
3	
1	
3	
6	
7	
7	
3	
8	
3	
4	
2	
3	
3	
8	
4	
3	
4	
8	
5	
3	
3	
4	
1	
2	
4	
3	
6	
4	
1	
1	
4	
4	
3	
4	
5	
2	
0	
6	
6	
3	
3	
2	
4	
3	
1	
3	
1	
6	
6	
2	
2	
9	
3	
5	
5	
0	
1	
0	
4	
6	
4	
6	
3	
1	
3	
4	
3	
4	
4	
4	
0	
5	
1	
4	
1	
2	
5	
7	
4	
4	
1	
3	
4	
1	
4	
7	
6	
5	
3	
4	
2	
2	
2	
4	
4	
2	
5	
2	
6	
5	
4	
5	
2	
4	
5	
4	
2	
2	
4	
1	
3	
8	
4	
6	
3	
2	
2	
6	
5	
7	
3	
1	
4	
1	
5	
7	
4	
3	
3	
1	
6	
5	
1	
3	
2	
7	
3	
7	
7	
1	
3	
1	
4	
2	
8	
2	
4	
0	
3	
2	
6	
10	
4	
3	
4	
1	
3	
0	
4	
2	
2	
7	
6	
4	
4	
3	
4	
3	
3	
7	
2	
2	
1	
5	
1	
4	
7	
7	
2	
4	
4	
1	
5	
9	
3	
3	
2	
3	
1	
4	
5	
3	
6	
3	
2	
5	
4	
5	
3	
8	
2	
3	
4	
6	
4	
1	
3	
6	
1	
4	
2	
8	
4	
3	
5	
6	
6	
5	
3	
2	
4	
3	
3	
0	
4	
4	
2	
2	
2	
5	
4	
6	
4	
1	
6	
2	
4	
4	
5	
3	
5	
3	
4	
9	
6	
3	
5	
3	
5	
3	
2	
5	
4	
1	
5	
6	
2	
10	
4	
5	
4	
4	
6	
2	
4	
5	
5	
3	
5	
1	
2	
0	
5	
2	
5	
3	
1	
6	
4	
6	
5	
5	
5	
2	
6	
3	
4	
2	
2	
8	
4	
6	
5	
1	
3	
2	
2	
8	
5	
3	
3	
1	
4	
1	
2	
1	
5	
1	
1	
5	
1	
1	
7	
4	
5	
3	
5	
3	
4	
3	
4	
2	
3	
2	
3	
3	
4	
2	
2	
3	
2	
2	
7	
5	
7	
3	
5	
2	
1	
8	
5	
3	
5	
2	
1	
1	
5	
9	
3	
3	
4	
5	
4	
4	
5	
4	
1	
4	
5	
5	
1	
3	
4	
3	
1	
2	
2	
4	
5	
6	
4	
1	
2	
2	
5	
1	
1	
9	
1	
4	
5	
8	
2	
1	
6	
9	
3	
6	
3	
7	
4	
4	
3	
4	
1	
6	
5	
5	
4	
4	
2	
5	
2	
1	
1	
5	
1	
3	
2	
4	
1	
6	
5	
8	
4	
3	
2	
6	
6	
2	
2	
1	
1	
3	
7	
5	
3	
4	
4	
3	
3	
3	
8	
1	
2	
4	
2	
9	
6	
1	
5	
5	
4	
4	
6	
4	
4	
4	
2	
4	
2	
8	
1	
5	
3	
5	
2	
3	
4	
1	
1	
6	
7	
4	
5	
4	
4	
4	
3	
5	
2	
3	
5	
1	
7	
6	
4	
5	
6	
3	
4	
6	
6	
6	
4	
3	
1	
4	
4	
5	
2	
2	
1	
2	
4	
5	
5	
1	
3	
5	
4	
1	
2	
1	
1	
1	
4	
2	
3	
1	
5	
2	
3	
4	
4	
3	
5	
2	
2	
3	
2	
3	
5	
1	
2	
11	
3	
2	
5	
1	
3	
6	
3	
6	
5	
4	
1	
4	
1	
3	
3	
3	
7	
2	
3	
0	
7	
2	
6	
3	
3	
4	
4	
7	
5	
3	
4	
4	
3	
2	
4	
4	
4	
7	
2	
7	
2	
7	
1	
4	
2	
6	
2	
3	
5	
5	
5	
2	
2	
5	
4	
3	
2	
6	
3	
4	
6	
7	
2	
5	
3	
1	
4	
5	
7	
1	
5	
7	
1	
4	
6	
7	
1	
0	
5	
2	
2	
7	
5	
4	
3	
4	
5	
3	
0	
3	
4	
5	
3	
5	
5	
1	
3	
4	
1	
1	
2	
2	
4	
2	
2	
3	
2	
6	
1	
5	
2	
3	
5	
4	
2	
5	
7	
3	
6	
5	
4	
5	
4	
2	
4	
5	
4	
1	
3	
3	
3	
5	
3	
1	
4	
2	
4	
2	
2	
5	
2	
1	
3	
3	
3	
6	
2	
2	
5	
3	
4	
3	
3	
4	
2	
2	
6	
6	
7	
7	
5	
6	
7	
7	
2	
4	
1	
4	
2	
4	
2	
3	
4	
5	
4	
5	
5	
3	
6	
2	
3	
3	
6	
4	
5	
3	
5	
7	
5	
2	
2	
3	
2	
5	
4	
5	
1	
6	
5	
3	
7	
6	
3	
2	
4	
2	
5	
2	
5	
4	
6	
3	
1	
7	
3	
4	
3	
3	
6	
5	
3	
2	
2	
2	
5	
6	
1	
5	
6	
3	
4	
2	
2	
2	
2	
3	
5	
5	
6	
3	
4	
3	
1	
0	
4	
4	
1	
4	
3	
4	
4	
6	
2	
6	
2	
3	
6	
4	
7	
4	
4	
8	
4	
2	
3	
2	
4	
0	
4	
4	
3	
4	
6	
3	
6	
3	
5	
7	
6	
2	
1	
8	
7	
2	
8	
7	
6	
4	
6	
3	
5	
7	
9	
2	
3	
2	
2	
5	
5	
2	
4	
5	
4	
3	
9	
5	
5	
6	
3	
2	
6	
3	
2	
1	
2	
2	
3	
5	
6	
5	
1	
6	
3	
5	
5	
2	
2	
2	
9	
3	
5	
2	
2	
4	
6	
7	
10	
3	
2	
2	
4	
5	
4	
10	
5	
3	
8	
8	
11	
14	
13	
18	
20	
18	
22	
31	
37	
34	
43	
49	
55	
61	
77	
82	
98	
103	
122	
153	
179	
207	
209	
219	
265	
309	
303	
352	
443	
437	
456	
526	
586	
579	
634	
663	
700	
735	
710	
730	
733	
760	
793	
794	
839	
902	
907	
929	
885	
907	
884	
899	
933	
862	
938	
878	
911	
926	
977	
928	
961	
1000	
932	
925	
904	
910	
917	
970	
942	
919	
951	
879	
900	
923	
893	
853	
883	
883	
886	
908	
881	
906	
903	
916	
922	
873	
921	
936	
916	
897	
887	
906	
837	
900	
793	
863	
864	
837	
821	
821	
842	
873	
824	
853	
867	
859	
885	
881	
823	
818	
784	
855	
890	
822	
802	
889	
866	
856	
777	
809	
830	
865	
891	
819	
826	
785	
804	
836	
820	
822	
809	
803	
788	
813	
774	
806	
805	
829	
813	
792	
768	
835	
824	
831	
841	
778	
804	
803	
824	
778	
789	
785	
814	
795	
751	
775	
781	
789	
812	
799	
766	
812	
752	
782	
738	
781	
810	
770	
791	
747	
731	
758	
779	
779	
777	
739	
741	
705	
772	
804	
723	
763	
754	
686	
744	
732	
736	
779	
693	
741	
739	
704	
803	
759	
734	
743	
752	
780	
715	
725	
784	
710	
755	
699	
715	
781	
715	
708	
702	
741	
751	
737	
739	
742	
732	
717	
664	
720	
733	
684	
747	
689	
724	
675	
752	
730	
747	
689	
728	
705	
757	
680	
667	
650	
671	
680	
744	
680	
699	
714	
747	
681	
697	
726	
689	
716	
672	
672	
685	
724	
669	
642	
672	
675	
627	
722	
729	
651	
693	
709	
681	
701	
684	
678	
646	
628	
711	
647	
690	
671	
695	
656	
663	
726	
674	
682	
693	
705	
664	
656	
674	
653	
668	
677	
651	
650	
670	
619	
663	
671	
664	
702	
640	
648	
653	
639	
679	
695	
697	
650	
655	
664	
645	
650	
635	
648	
662	
673	
616	
664	
653	
628	
680	
678	
648	
657	
623	
596	
678	
620	
652	
609	
665	
643	
657	
615	
632	
633	
669	
622	
616	
661	
611	
642	
636	
663	
679	
610	
654	
639	
642	
649	
654	
644	
670	
608	
630	
613	
643	
649	
630	
629	
627	
600	
639	
657	
621	
651	
673	
667	
689	
637	
641	
666	
630	
626	
616	
589	
613	
601	
620	
614	
608	
594	
623	
625	
631	
604	
545	
664	
615	
564	
608	
633	
633	
579	
621	
638	
567	
598	
577	
620	
601	
594	
591	
612	
595	
560	
634	
575	
605	
560	
621	
581	
615	
622	
644	
602	
591	
579	
575	
597	
644	
622	
601	
599	
608	
606	
535	
573	
621	
639	
607	
606	
561	
545	
577	
610	
597	
595	
571	
565	
584	
572	
567	
593	
593	
609	
597	
557	
570	
568	
588	
534	
567	
540	
608	
575	
570	
567	
569	
526	
564	
615	
550	
586	
564	
586	
609	
603	
582	
560	
567	
583	
571	
577	
573	
531	
547	
635	
557	
577	
579	
580	
577	
585	
562	
539	
529	
585	
573	
598	
547	
542	
546	
562	
539	
548	
610	
524	
543	
538	
596	
539	
570	
565	
570	
536	
558	
555	
548	
545	
540	
566	
574	
580	
615	
521	
514	
560	
534	
555	
549	
525	
551	
596	
537	
574	
541	
533	
558	
539	
565	
572	
565	
518	
542	
546	
521	
506	
535	
565	
514	
538	
566	
517	
604	
540	
500	
556	
501	
547	
544	
549	
528	
535	
548	
535	
518	
555	
514	
534	
516	
538	
514	
507	
543	
539	
505	
537	
577	
521	
542	
545	
514	
538	
558	
552	
507	
517	
544	
541	
576	
511	
525	
488	
560	
539	
539	
500	
499	
559	
495	
499	
492	
588	
526	
526	
487	
530	
490	
543	
501	
523	
518	
538	
526	
523	
500	
514	
540	
533	
519	
505	
503	
470	
464	
490	
512	
510	
541	
562	
468	
481	
522	
490	
528	
483	
503	
512	
450	
494	
506	
515	
464	
522	
522	
514	
535	
519	
491	
525	
515	
483	
533	
479	
489	
515	
473	
504	
508	
485	
489	
544	
538	
498	
471	
496	
486	
479	
526	
500	
529	
479	
526	
475	
464	
474	
450	
525	
503	
424	
498	
492	
487	
502	
487	
469	
477	
452	
470	
476	
524	
519	
534	
485	
501	
465	
506	
491	
445	
482	
520	
463	
475	
491	
469	
470	
479	
487	
507	
498	
489	
474	
472	
505	
462	
494	
506	
508	
507	
476	
478	
497	
512	
501	
479	
501	
506	
461	
454	
517	
484	
486	
502	
489	
463	
480	
472	
478	
464	
472	
497	
464	
453	
490	
496	
433	
452	
480	
460	
476	
471	
462	
440	
452	
467	
486	
504	
454	
446	
457	
476	
500	
444	
481	
475	
450	
468	
497	
457	
452	
439	
475	
494	
453	
423	
445	
476	
458	
488	
441	
450	
490	
515	
469	
495	
439	
452	
461	
449	
453	
453	
450	
458	
466	
440	
457	
512	
450	
474	
479	
426	
454	
435	
435	
473	
440	
454	
471	
443	
419	
439	
450	
469	
434	
442	
439	
461	
459	
452	
457	
418	
465	
442	
471	
443	
475	
431	
464	
447	
462	
454	
428	
443	
441	
498	
449	
455	
445	
413	
447	
456	
405	
463	
460	
414	
423	
420	
451	
463	
463	
470	
448	
438	
427	
420	
442	
442	
465	
432	
452	
456	
445	
462	
459	
427	
471	
463	
425	
434	
451	
420	
443	
450	
426	
394	
430	
418	
407	
409	
422	
442	
397	
453	
424	
422	
453	
443	
416	
491	
487	
419	
436	
401	
455	
420	
436	
426	
424	
435	
443	
429	
446	
426	
413	
452	
406	
425	
404	
420	
452	
402	
424	
421	
411	
412	
387	
414	
386	
442	
424	
457	
427	
414	
427	
425	
429	
456	
419	
407	
407	
404	
409	
417	
411	
445	
401	
381	
423	
455	
459	
436	
428	
412	
427	
397	
401	
423	
439	
415	
457	
423	
418	
424	
425	
425	
453	
419	
435	
420	
394	
416	
423	
395	
395	
441	
419	
441	
433	
413	
433	
394	
404	
414	
411	
406	
422	
417	
422	
424	
373	
420	
408	
410	
385	
393	
404	
427	
421	
453	
398	
404	
398	
374	
432	
392	
401	
424	
414	
406	
432	
392	
405	
385	
421	
405	
388	
428	
397	
423	
439	
374	
406	
395	
398	
409	
404	
395	
413	
384	
410	
429	
386	
398	
420	
420	
400	
395	
394	
388	
354	
397	
404	
396	
403	
415	
441	
360	
355	
398	
390	
371	
408	
362	
391	
396	
353	
397	
379	
369	
436	
392	
384	
395	
401	
390	
395	
423	
364	
386	
401	
364	
372	
382	
380	
390	
398	
359	
396	
406	
374	
406	
379	
420	
428	
406	
392	
376	
401	
392	
354	
420	
392	
384	
374	
399	
384	
379	
372	
374	
375	
381	
417	
360	
401	
363	
337	
369	
416	
369	
379	
389	
351	
388	
346	
366	
377	
378	
414	
405	
361	
365	
393	
383	
403	
376	
361	
357	
370	
348	
369	
374	
381	
387	
349	
368	
411	
373	
380	
372	
380	
394	
349	
438	
332	
339	
363	
386	
360	
380	
394	
351	
360	
377	
371	
365	
381	
391	
399	
365	
396	
373	
396	
387	
354	
372	
342	
397	
402	
377	
381	
368	
396	
357	
351	
348	
389	
358	
365	
382	
384	
397	
375	
368	
361	
363	
328	
369	
373	
380	
418	
366	
388	
338	
355	
375	
389	
357	
388	
379	
391	
381	
378	
368	
387	
364	
406	
371	
379	
342	
398	
344	
374	
353	
341	
368	
357	
365	
374	
343	
360	
321	
331	
332	
374	
358	
348	
352	
362	
383	
353	
346	
365	
353	
370	
390	
380	
362	
362	
387	
368	
379	
330	
349	
354	
350	
379	
369	
372	
354	
405	
342	
345	
329	
317	
353	
353	
346	
349	
321	
368	
350	
341	
328	
354	
373	
326	
344	
361	
301	
368	
326	
352	
336	
373	
324	
324	
324	
353	
353	
335	
346	
369	
339	
357	
360	
368	
365	
339	
365	
361	
370	
353	
357	
340	
340	
360	
340	
331	
330	
354	
336	
360	
316	
352	
359	
371	
344	
378	
345	
310	
329	
360	
325	
357	
331	
349	
334	
339	
375	
368	
374	
312	
351	
305	
328	
326	
331	
353	
355	
344	
365	
344	
345	
335	
383	
334	
373	
349	
334	
347	
368	
353	
371	
352	
296	
363	
332	
329	
374	
339	
357	
363	
329	
295	
333	
362	
351	
345	
329	
348	
337	
348	
335	
324	
346	
332	
348	
369	
350	
356	
346	
322	
340	
296	
311	
328	
303	
321	
345	
334	
305	
309	
377	
362	
342	
331	
332	
302	
328	
299	
318	
310	
356	
324	
320	
309	
311	
321	
315	
305	
315	
338	
337	
302	
324	
341	
288	
309	
343	
304	
257	
331	
308	
355	
319	
341	
281	
342	
325	
328	
314	
322	
344	
315	
324	
308	
315	
309	
330	
323	
310	
297	
301	
309	
340	
302	
322	
342	
308	
318	
314	
315	
318	
331	
327	
306	
315	
320	
313	
318	
309	
316	
334	
297	
328	
348	
311	
309	
328	
307	
322	
338	
290	
312	
323	
304	
318	
296	
315	
310	
319	
296	
335	
351	
318	
322	
338	
287	
317	
339	
334	
302	
317	
310	
289	
346	
313	
312	
315	
335	
302	
320	
342	
292	
314	
334	
338	
311	
356	
311	
311	
314	
298	
291	
307	
295	
327	
325	
306	
336	
300	
314	
329	
290	
299	
314	
309	
346	
330	
287	
299	
321	
319	
326	
294	
322	
304	
319	
318	
333	
305	
332	
299	
323	
306	
325	
327	
327	
297	
299	
283	
310	
309	
303	
329	
315	
307	
318	
326	
308	
338	
299	
303	
303	
335	
292	
292	
295	
284	
280	
299	
282	
321	
313	
293	
306	
313	
317	
303	
280	
301	
292	
302	
311	
313	
286	
302	
311	
291	
302	
329	
301	
284	
278	
326	
280	
279	
325	
278	
283	
308	
291	
296	
292	
308	
313	
300	
308	
303	
285	
283	
284	
294	
314	
305	
305	
326	
287	
272	
282	
306	
284	
258	
307	
322	
317	
285	
341	
291	
271	
296	
326	
293	
316	
292	
310	
288	
298	
305	
263	
273	
279	
247	
288	
267	
319	
291	
281	
315	
314	
302	
290	
292	
310	
288	
300	
290	
281	
277	
279	
302	
297	
274	
283	
315	
294	
269	
297	
281	
309	
288	
262	
255	
281	
283	
278	
312	
270	
270	
303	
276	
264	
290	
319	
285	
282	
298	
294	
306	
282	
313	
289	
257	
255	
283	
279	
294	
314	
267	
266	
294	
266	
289	
283	
257	
288	
258	
289	
287	
280	
281	
287	
301	
267	
297	
314	
264	
304	
301	
301	
283	
285	
291	
275	
307	
280	
286	
281	
298	
302	
245	
271	
315	
294	
290	
263	
276	
252	
285	
291	
248	
297	
261	
294	
284	
269	
284	
285	
279	
268	
262	
282	
273	
275	
274	
258	
277	
295	
261	
247	
274	
273	
302	
295	
280	
296	
258	
250	
246	
270	
295	
271	
275	
278	
293	
266	
293	
297	
281	
278	
257	
278	
275	
274	
307	
312	
281	
292	
261	
266	
296	
284	
276	
273	
272	
305	
282	
296	
287	
261	
310	
267	
293	
297	
274	
278	
276	
267	
273	
280	
253	
297	
298	
265	
274	
268	
261	
281	
253	
295	
270	
259	
253	
275	
293	
243	
267	
245	
250	
263	
264	
261	
263	
280	
292	
270	
238	
256	
269	
288	
250	
275	
253	
264	
243	
233	
249	
241	
260	
234	
266	
254	
281	
250	
285	
262	
287	
256	
269	
266	
296	
274	
267	
266	
248	
276	
247	
280	
253	
254	
261	
259	
273	
239	
260	
264	
272	
255	
244	
272	
247	
239	
280	
263	
310	
241	
262	
284	
298	
257	
297	
252	
258	
279	
282	
295	
267	
298	
270	
276	
266	
275	
243	
257	
254	
285	
258	
242	
235	
264	
245	
292	
254	
240	
234	
286	
285	
238	
270	
270	
253	
250	
266	
278	
263	
259	
226	
245	
256	
278	
269	
270	
247	
245	
264	
271	
245	
256	
266	
254	
263	
266	
244	
273	
247	
243	
239	
264	
276	
229	
250	
232	
278	
267	
270	
270	
265	
227	
263	
260	
256	
266	
244	
226	
254	
253	
255	
272	
262	
241	
252	
247	
262	
268	
248	
221	
249	
262	
239	
287	
244	
249	
255	
299	
264	
272	
234	
250	
225	
226	
257	
253	
258	
253	
256	
253	
282	
233	
234	
254	
266	
251	
262	
238	
249	
252	
240	
273	
226	
261	
272	
240	
283	
245	
222	
230	
236	
246	
243	
244	
253	
265	
235	
250	
238	
239	
253	
225	
258	
243	
266	
274	
260	
238	
260	
242	
270	
251	
263	
238	
260	
265	
237	
205	
263	
274	
230	
245	
247	
226	
238	
255	
246	
235	
263	
253	
218	
234	
259	
243	
223	
220	
212	
224	
269	
281	
241	
248	
222	
257	
270	
227	
229	
237	
259	
243	
245	
235	
227	
292	
253	
237	
215	
230	
246	
225	
251	
267	
263	
261	
241	
251	
245	
233	
221	
238	
243	
227	
212	
252	
249	
240	
245	
249	
253	
229	
267	
247	
232	
260	
242	
240	
239	
269	
236	
229	
219	
236	
248	
258	
237	
265	
247	
230	
251	
251	
211	
248	
251	
239	
261	
255	
235	
240	
268	
239	
217	
240	
215	
229	
231	
269	
245	
263	
237	
242	
214	
239	
235	
249	
218	
230	
221	
239	
234	
241	
240	
242	
261	
237	
257	
209	
227	
222	
224	
230	
230	
231	
224	
248	
216	
234	
245	
249	
225	
227	
254	
242	
252	
230	
242	
242	
232	
252	
223	
245	
201	
222	
237	
234	
215	
246	
216	
218	
247	
207	
224	
242	
230	
234	
233	
249	
258	
239	
225	
238	
221	
230	
239	
208	
209	
242	
244	
231	
226	
209	
252	
222	
218	
250	
242	
205	
229	
229	
237	
224	
216	
210	
229	
238	
197	
254	
220	
235	
209	
190	
223	
199	
228	
233	
223	
234	
203	
215	
249	
216	
224	
231	
230	
234	
220	
219	
208	
215	
198	
262	
216	
210	
238	
225	
244	
232	
221	
204	
212	
207	
215	
233	
191	
238	
210	
198	
203	
211	
202	
217	
242	
226	
214	
246	
241	
211	
238	
218	
236	
215	
256	
217	
226	
233	
221	
228	
228	
238	
221	
227	
251	
203	
209	
227	
221	
199	
223	
216	
187	
199	
235	
223	
207	
209	
213	
213	
201	
218	
212	
192	
219	
240	
200	
233	
217	
222	
217	
228	
220	
236	
239	
201	
227	
225	
197	
211	
211	
228	
232	
215	
219	
198	
231	
222	
229	
222	
217	
205	
227	
224	
209	
187	
220	
205	
196	
218	
208	
231	
199	
245	
198	
236	
208	
213	
221	
211	
219	
216	
227	
211	
202	
227	
207	
210	
245	
204	
211	
205	
232	
231	
196	
205	
237	
208	
239	
217	
212	
199	
192	
211	
209	
208	
184	
242	
197	
233	
203	
195	
238	
208	
214	
213	
223	
220	
207	
211	
204	
236	
217	
226	
205	
206	
220	
224	
202	
211	
185	
207	
205	
208	
211	
216	
207	
211	
216	
214	
242	
215	
226	
201	
192	
217	
208	
217	
213	
196	
199	
195	
194	
211	
202	
214	
231	
245	
207	
203	
216	
206	
213	
215	
190	
220	
204	
207	
238	
198	
206	
197	
212	
193	
197	
195	
210	
198	
210	
202	
208	
194	
198	
183	
196	
207	
208	
204	
199	
184	
215	
207	
195	
200	
211	
201	
197	
205	
206	
230	
195	
193	
200	
223	
195	
182	
218	
200	
195	
213	
190	
196	
205	
217	
219	
191	
200	
234	
201	
195	
201	
226	
203	
210	
196	
229	
213	
217	
217	
192	
191	
227	
208	
221	
216	
185	
188	
196	
210	
188	
166	
210	
212	
191	
204	
199	
217	
197	
197	
186	
190	
203	
199	
189	
214	
195	
185	
211	
171	
209	
202	
182	
210	
194	
191	
192	
202	
197	
184	
209	
217	
207	
209	
203	
198	
192	
208	
208	
195	
168	
196	
214	
197	
206	
220	
211	
193	
200	
200	
186	
214	
198	
190	
188	
212	
221	
208	
177	
191	
203	
188	
196	
192	
192	
182	
210	
207	
195	
167	
172	
214	
177	
200	
189	
190	
201	
182	
243	
182	
162	
207	
182	
199	
176	
171	
190	
183	
202	
201	
175	
192	
200	
184	
220	
164	
190	
202	
195	
221	
188	
151	
200	
201	
194	
184	
226	
187	
199	
203	
184	
186	
185	
189	
186	
194	
189	
175	
167	
198	
183	
207	
184	
196	
169	
201	
180	
175	
177	
206	
177	
190	
189	
190	
214	
190	
195	
200	
219	
202	
183	
172	
174	
207	
203	
202	
206	
199	
182	
181	
188	
194	
201	
195	
207	
198	
198	
184	
169	
177	
186	
189	
187	
180	
165	
193	
167	
188	
193	
210	
150	
175	
188	
181	
189	
178	
178	
198	
167	
194	
203	
176	
174	
174	
174	
206	
172	
177	
187	
202	
197	
194	
178	
200	
181	
190	
202	
185	
202	
183	
178	
171	
177	
155	
167	
196	
180	
175	
213	
197	
161	
195	
181	
207	
173	
167	
210	
192	
184	
185	
162	
189	
210	
186	
215	
206	
153	
200	
187	
207	
195	
187	
192	
182	
177	
181	
189	
173	
194	
190	
180	
175	
166	
202	
167	
204	
198	
201	
175	
176	
198	
199	
195	
177	
185	
192	
196	
196	
173	
196	
200	
193	
182	
192	
187	
187	
198	
189	
186	
170	
188	
187	
164	
177	
168	
194	
170	
164	
178	
186	
183	
170	
212	
188	
199	
186	
192	
189	
178	
179	
199	
182	
174	
171	
177	
192	
178	
177	
166	
197	
185	
174	
175	
176	
199	
173	
170	
201	
187	
164	
164	
172	
200	
164	
176	
194	
178	
175	
181	
186	
154	
179	
168	
171	
186	
189	
158	
156	
208	
174	
163	
176	
161	
173	
209	
169	
174	
172	
181	
182	
166	
182	
182	
170	
196	
178	
181	
198	
187	
161	
158	
177	
170	
199	
191	
147	
161	
178	
175	
168	
196	
162	
172	
192	
179	
181	
200	
174	
164	
173	
174	
210	
161	
181	
163	
168	
171	
168	
183	
177	
189	
181	
151	
163	
185	
175	
171	
172	
173	
182	
176	
172	
196	
142	
168	
152	
185	
175	
172	
161	
157	
155	
180	
181	
169	
189	
193	
168	
179	
163	
158	
162	
166	
175	
169	
160	
183	
152	
175	
175	
154	
169	
187	
193	
151	
190	
165	
177	
170	
180	
174	
160	
157	
164	
162	
168	
183	
179	
193	
163	
191	
181	
165	
184	
179	
154	
149	
158	
181	
164	
165	
179	
163	
178	
154	
182	
172	
172	
169	
147	
164	
173	
189	
178	
162	
169	
159	
147	
161	
169	
175	
174	
143	
174	
167	
180	
170	
171	
166	
147	
201	
156	
159	
161	
176	
161	
167	
162	
178	
155	
165	
156	
150	
170	
157	
173	
178	
171	
169	
174	
166	
184	
175	
167	
162	
161	
174	
178	
155	
166	
138	
159	
165	
163	
153	
162	
138	
170	
162	
177	
155	
163	
161	
143	
160	
176	
169	
173	
170	
159	
166	
207	
171	
154	
146	
167	
173	
154	
130	
188	
166	
169	
179	
156	
155	
161	
160	
163	
164	
168	
171	
155	
175	
164	
180	
155	
148	
155	
145	
159	
145	
156	
165	
137	
146	
161	
171	
149	
154	
170	
190	
199	
166	
148	
153	
154	
154	
164	
131	
146	
162	
157	
188	
158	
141	
170	
140	
172	
173	
163	
148	
164	
166	
180	
154	
163	
156	
149	
167	
155	
158	
176	
168	
160	
154	
160	
161	
154	
147	
165	
156	
144	
151	
166	
164	
156	
150	
159	
146	
145	
165	
156	
167	
174	
159	
136	
163	
168	
163	
176	
159	
163	
169	
162	
155	
168	
152	
173	
176	
164	
157	
153	
166	
169	
128	
173	
161	
166	
168	
147	
152	
167	
156	
146	
170	
171	
155	
156	
155	
171	
147	
162	
171	
179	
160	
190	
177	
169	
151	
150	
140	
141	
167	
177	
149	
138	
152	
132	
148	
156	
149	
145	
163	
155	
142	
151	
149	
168	
148	
158	
173	
155	
162	
147	
151	
160	
150	
161	
142	
171	
155	
147	
146	
151	
148	
163	
156	
170	
178	
157	
171	
164	
142	
118	
175	
143	
161	
165	
164	
162	
174	
162	
164	
144	
163	
160	
163	
164	
152	
179	
140	
156	
158	
158	
133	
158	
140	
158	
147	
166	
141	
160	
150	
142	
152	
145	
161	
164	
163	
163	
160	
144	
153	
171	
209	
147	
166	
149	
147	
134	
152	
137	
164	
142	
147	
161	
129	
141	
149	
135	
161	
130	
132	
151	
146	
134	
160	
160	
155	
157	
161	
156	
157	
121	
155	
145	
164	
150	
175	
178	
122	
154	
128	
173	
131	
147	
153	
167	
126	
138	
140	
161	
152	
161	
141	
167	
144	
142	
143	
158	
159	
128	
159	
156	
149	
152	
155	
151	
157	
122	
161	
125	
133	
143	
128	
136	
159	
144	
146	
144	
144	
156	
153	
146	
132	
116	
154	
143	
146	
139	
160	
171	
166	
147	
145	
153	
143	
164	
158	
162	
145	
141	
144	
153	
154	
130	
143	
154	
164	
133	
168	
129	
158	
147	
165	
134	
190	
147	
147	
170	
167	
143	
158	
129	
137	
144	
167	
129	
161	
149	
162	
155	
137	
153	
142	
123	
163	
152	
146	
179	
145	
153	
155	
142	
138	
152	
138	
171	
156	
151	
162	
145	
140	
136	
180	
136	
155	
158	
146	
157	
165	
131	
150	
157	
134	
152	
124	
133	
145	
150	
147	
128	
139	
132	
144	
135	
142	
140	
154	
145	
147	
145	
137	
133	
135	
134	
151	
139	
148	
132	
137	
148	
127	
149	
153	
127	
168	
140	
156	
174	
157	
142	
144	
144	
147	
138	
173	
121	
146	
143	
161	
146	
160	
142	
141	
160	
140	
148	
138	
137	
138	
126	
145	
158	
130	
153	
151	
147	
127	
129	
147	
139	
140	
146	
145	
142	
135	
148	
133	
152	
129	
137	
153	
134	
126	
142	
139	
122	
139	
168	
145	
146	
148	
158	
134	
139	
153	
153	
148	
130	
148	
152	
141	
138	
122	
158	
114	
137	
123	
138	
121	
152	
149	
142	
155	
148	
119	
137	
165	
144	
166	
129	
129	
147	
118	
153	
160	
144	
153	
143	
136	
157	
137	
132	
136	
117	
151	
131	
138	
124	
140	
158	
134	
149	
117	
129	
136	
136	
156	
129	
124	
140	
130	
137	
131	
141	
128	
143	
149	
169	
113	
129	
132	
137	
114	
150	
135	
128	
113	
142	
138	
140	
114	
137	
156	
141	
139	
137	
132	
143	
137	
127	
119	
144	
137	
140	
131	
133	
147	
160	
137	
129	
139	
147	
128	
136	
126	
121	
139	
135	
124	
144	
130	
142	
122	
153	
131	
139	
132	
151	
131	
154	
135	
142	
137	
130	
155	
112	
128	
133	
118	
149	
124	
127	
145	
158	
146	
144	
143	
123	
138	
143	
148	
137	
147	
134	
121	
122	
143	
140	
131	
125	
119	
134	
130	
152	
118	
130	
139	
136	
135	
143	
133	
138	
157	
135	
143	
146	
149	
129	
138	
131	
133	
137	
150	
130	
119	
142	
148	
123	
136	
131	
150	
128	
152	
141	
132	
164	
133	
133	
151	
117	
133	
133	
133	
137	
143	
146	
125	
136	
124	
143	
141	
111	
121	
124	
140	
111	
133	
122	
110	
137	
130	
139	
137	
134	
137	
128	
123	
137	
152	
149	
128	
133	
132	
129	
116	
118	
143	
122	
139	
126	
118	
129	
117	
107	
134	
125	
124	
105	
146	
121	
128	
113	
156	
130	
146	
129	
106	
140	
124	
137	
133	
140	
139	
121	
127	
140	
142	
126	
133	
135	
134	
131	
116	
130	
136	
121	
141	
126	
121	
111	
118	
118	
119	
128	
110	
135	
124	
119	
125	
121	
138	
124	
121	
124	
114	
109	
122	
125	
117	
117	
115	
114	
127	
128	
125	
126	
119	
147	
141	
120	
125	
129	
120	
115	
108	
119	
106	
102	
142	
127	
132	
136	
129	
132	
140	
112	
122	
132	
131	
127	
132	
129	
113	
120	
134	
136	
121	
134	
122	
121	
136	
133	
152	
146	
130	
102	
122	
119	
134	
118	
129	
134	
134	
99	
125	
125	
111	
111	
113	
127	
136	
136	
137	
127	
125	
133	
132	
128	
103	
129	
134	
114	
120	
118	
121	
118	
120	
141	
148	
134	
128	
133	
125	
131	
120	
115	
144	
143	
121	
125	
111	
125	
126	
116	
127	
133	
121	
139	
112	
103	
115	
116	
129	
117	
126	
126	
111	
132	
98	
128	
114	
148	
120	
115	
141	
134	
116	
113	
132	
124	
127	
117	
111	
97	
141	
95	
119	
111	
133	
117	
141	
109	
116	
125	
124	
128	
119	
127	
126	
119	
108	
135	
137	
120	
129	
127	
100	
125	
120	
124	
136	
116	
131	
127	
125	
121	
135	
122	
129	
135	
113	
112	
117	
136	
121	
112	
133	
114	
129	
119	
143	
114	
127	
124	
135	
112	
140	
116	
133	
106	
124	
113	
134	
117	
124	
120	
117	
126	
125	
106	
110	
132	
124	
134	
150	
122	
122	
111	
122	
118	
104	
111	
129	
125	
137	
123	
131	
114	
123	
119	
142	
113	
128	
117	
119	
129	
121	
111	
124	
128	
126	
117	
119	
127	
107	
132	
134	
117	
130	
123	
121	
115	
126	
117	
101	
112	
102	
131	
115	
105	
134	
120	
123	
120	
144	
130	
126	
119	
118	
120	
124	
122	
97	
120	
122	
101	
121	
112	
102	
123	
124	
136	
114	
126	
123	
107	
122	
116	
121	
115	
106	
108	
111	
123	
97	
101	
112	
106	
125	
110	
123	
121	
118	
126	
102	
133	
115	
115	
122	
107	
119	
102	
128	
119	
119	
104	
115	
110	
120	
119	
117	
106	
110	
119	
133	
118	
134	
95	
113	
121	
107	
112	
122	
108	
110	
108	
129	
99	
117	
124	
113	
107	
128	
113	
133	
116	
115	
108	
114	
141	
127	
129	
107	
125	
113	
121	
107	
125	
132	
125	
104	
125	
109	
95	
121	
116	
101	
122	
126	
132	
115	
124	
119	
117	
119	
125	
104	
128	
123	
99	
101	
106	
123	
97	
124	
110	
115	
117	
121	
115	
101	
119	
118	
114	
117	
85	
105	
116	
96	
107	
118	
107	
128	
105	
110	
113	
116	
131	
121	
107	
103	
103	
110	
107	
110	
106	
117	
125	
110	
99	
121	
107	
107	
121	
131	
129	
105	
112	
111	
123	
118	
97	
113	
109	
103	
130	
121	
111	
134	
105	
105	
121	
114	
115	
118	
111	
120	
120	
119	
103	
118	
104	
109	
107	
119	
114	
114	
121	
103	
113	
116	
122	
108	
125	
119	
101	
119	
108	
107	
112	
96	
114	
107	
118	
119	
113	
99	
109	
105	
96	
99	
123	
111	
124	
120	
94	
130	
89	
104	
103	
123	
123	
130	
122	
126	
106	
98	
101	
114	
94	
104	
139	
99	
91	
104	
101	
114	
90	
114	
120	
112	
115	
132	
104	
121	
123	
107	
106	
122	
96	
100	
100	
105	
103	
116	
130	
109	
107	
134	
112	
111	
119	
122	
108	
121	
98	
102	
134	
113	
114	
107	
125	
124	
112	
116	
107	
106	
103	
105	
116	
118	
89	
129	
121	
119	
91	
114	
119	
121	
110	
108	
105	
127	
110	
108	
98	
87	
107	
129	
107	
101	
92	
112	
103	
115	
100	
101	
100	
116	
113	
97	
91	
102	
117	
103	
99	
98	
116	
113	
116	
105	
118	
92	
106	
103	
93	
107	
134	
98	
91	
90	
106	
104	
111	
113	
106	
102	
90	
112	
119	
126	
104	
116	
99	
111	
93	
108	
107	
124	
105	
126	
98	
124	
102	
99	
100	
101	
115	
115	
98	
113	
111	
96	
128	
120	
96	
87	
111	
101	
99	
101	
101	
105	
114	
104	
122	
116	
98	
105	
112	
101	
107	
103	
100	
103	
100	
100	
101	
117	
104	
104	
103	
110	
110	
107	
101	
115	
98	
97	
136	
122	
111	
113	
97	
96	
99	
98	
104	
91	
120	
90	
96	
108	
106	
106	
122	
111	
102	
93	
116	
88	
85	
113	
90	
110	
97	
80	
97	
113	
117	
106	
111	
78	
124	
95	
117	
97	
107	
104	
101	
90	
106	
104	
92	
103	
94	
104	
106	
101	
111	
101	
103	
101	
104	
100	
97	
104	
96	
99	
95	
87	
108	
110	
92	
106	
95	
104	
100	
88	
96	
103	
113	
109	
109	
103	
87	
100	
90	
115	
122	
96	
95	
97	
96	
91	
120	
119	
82	
99	
112	
96	
112	
101	
112	
119	
122	
85	
92	
96	
97	
88	
119	
103	
91	
98	
102	
96	
80	
116	
95	
104	
96	
86	
112	
107	
98	
92	
99	
104	
100	
110	
97	
108	
110	
100	
86	
96	
104	
97	
102	
107	
100	
109	
112	
142	
112	
91	
103	
94	
113	
109	
83	
94	
102	
103	
129	
113	
91	
84	
109	
114	
106	
100	
105	
89	
93	
86	
99	
94	
134	
106	
107	
98	
99	
90	
93	
112	
93	
98	
87	
103	
104	
92	
94	
79	
111	
95	
105	
99	
107	
103	
84	
110	
122	
98	
89	
101	
100	
95	
107	
93	
93	
114	
87	
103	
90	
92	
90	
89	
96	
102	
112	
89	
108	
98	
96	
114	
96	
98	
85	
115	
94	
90	
90	
89	
112	
98	
95	
90	
109	
108	
106	
94	
88	
124	
88	
115	
115	
81	
96	
96	
113	
101	
100	
87	
110	
93	
95	
91	
95	
110	
117	
106	
115	
85	
87	
117	
99	
87	
94	
87	
96	
92	
94	
98	
93	
102	
111	
95	
97	
96	
105	
106	
86	
100	
103	
98	
97	
114	
91	
95	
126	
81	
91	
88	
99	
105	
104	
100	
123	
91	
97	
92	
112	
98	
96	
96	
113	
97	
98	
96	
88	
100	
117	
103	
107	
92	
85	
116	
97	
94	
112	
87	
88	
97	
89	
115	
89	
110	
85	
110	
83	
84	
93	
96	
83	
94	
94	
93	
87	
107	
93	
89	
84	
102	
111	
90	
97	
96	
103	
116	
82	
97	
101	
93	
102	
104	
88	
104	
102	
112	
91	
90	
95	
98	
101	
95	
95	
94	
104	
100	
99	
103	
92	
99	
103	
98	
100	
88	
93	
87	
120	
107	
94	
85	
107	
99	
86	
93	
104	
82	
105	
88	
89	
82	
84	
71	
97	
85	
94	
99	
97	
82	
87	
96	
83	
93	
97	
80	
95	
103	
85	
101	
91	
89	
91	
90	
85	
97	
94	
87	
101	
95	
94	
96	
103	
76	
109	
96	
105	
100	
88	
100	
95	
85	
102	
92	
93	
91	
111	
110	
85	
97	
87	
82	
85	
89	
87	
89	
93	
100	
114	
96	
94	
88	
105	
83	
82	
96	
104	
110	
96	
87	
91	
84	
106	
114	
94	
90	
82	
94	
91	
95	
91	
90	
88	
81	
100	
104	
76	
105	
98	
106	
81	
95	
98	
107	
81	
79	
67	
86	
98	
90	
102	
106	
95	
92	
89	
81	
87	
84	
88	
118	
94	
79	
79	
92	
90	
88	
105	
93	
95	
90	
78	
80	
95	
87	
103	
94	
86	
90	
95	
77	
94	
88	
109	
97	
89	
98	
85	
90	
96	
97	
88	
98	
74	
87	
81	
77	
98	
90	
86	
94	
89	
91	
101	
88	
106	
79	
71	
89	
80	
114	
76	
99	
113	
89	
101	
86	
111	
97	
95	
95	
87	
86	
81	
88	
92	
88	
88	
113	
104	
90	
108	
85	
76	
91	
107	
78	
82	
97	
84	
100	
89	
104	
79	
93	
76	
86	
81	
100	
93	
98	
97	
103	
88	
79	
84	
92	
81	
86	
84	
82	
98	
84	
96	
92	
83	
82	
98	
92	
62	
91	
83	
71	
96	
77	
96	
85	
85	
93	
83	
70	
70	
76	
75	
95	
90	
91	
76	
90	
87	
95	
89	
91	
99	
79	
95	
91	
88	
97	
107	
83	
89	
77	
90	
95	
91	
98	
86	
95	
93	
89	
90	
80	
111	
97	
108	
82	
86	
85	
93	
82	
96	
71	
91	
89	
77	
92	
104	
86	
91	
90	
82	
86	
85	
87	
87	
92	
94	
82	
100	
105	
89	
93	
92	
96	
78	
92	
86	
98	
78	
81	
88	
75	
71	
86	
99	
80	
91	
106	
71	
77	
79	
95	
80	
83	
87	
103	
96	
82	
95	
72	
83	
80	
83	
88	
84	
95	
91	
79	
93	
104	
97	
90	
77	
112	
92	
85	
83	
74	
90	
79	
91	
94	
84	
93	
78	
88	
99	
91	
82	
90	
87	
94	
85	
113	
89	
86	
76	
100	
71	
82	
88	
96	
78	
80	
86	
81	
95	
71	
83	
89	
70	
84	
86	
91	
84	
104	
82	
92	
78	
73	
73	
85	
77	
63	
91	
87	
73	
96	
86	
96	
95	
77	
95	
79	
95	
85	
92	
72	
110	
73	
93	
93	
85	
96	
83	
85	
92	
90	
65	
91	
103	
85	
97	
75	
79	
92	
86	
77	
89	
70	
71	
82	
79	
80	
84	
75	
93	
81	
91	
100	
87	
98	
83	
74	
81	
92	
95	
91	
80	
92	
91	
87	
84	
87	
77	
89	
79	
94	
77	
87	
84	
78	
73	
84	
106	
81	
84	
83	
88	
89	
86	
101	
66	
89	
65	
77	
90	
77	
87	
78	
85	
74	
102	
76	
93	
83	
88	
83	
68	
67	
107	
96	
74	
95	
91	
68	
86	
83	
81	
80	
86	
82	
85	
87	
73	
86	
90	
94	
77	
70	
65	
76	
83	
83	
88	
74	
79	
73	
77	
80	
91	
81	
89	
96	
74	
92	
71	
83	
72	
78	
70	
88	
81	
91	
89	
101	
80	
86	
82	
87	
81	
74	
65	
70	
84	
71	
89	
88	
82	
74	
78	
86	
82	
97	
83	
97	
78	
73	
75	
88	
72	
75	
81	
79	
76	
81	
74	
88	
92	
89	
87	
85	
80	
66	
92	
78	
80	
70	
84	
94	
82	
86	
89	
75	
74	
86	
91	
84	
82	
73	
86	
97	
88	
68	
81	
94	
91	
78	
73	
83	
77	
89	
75	
86	
84	
76	
73	
75	
83	
80	
77	
87	
79	
79	
71	
73	
87	
93	
68	
79	
82	
84	
86	
60	
83	
73	
89	
79	
79	
65	
76	
102	
85	
79	
97	
79	
87	
91	
70	
95	
80	
88	
78	
76	
79	
87	
80	
78	
76	
77	
85	
75	
72	
71	
67	
68	
78	
62	
84	
76	
81	
90	
89	
78	
77	
73	
81	
88	
73	
79	
81	
83	
85	
65	
71	
107	
87	
70	
105	
95	
76	
86	
75	
74	
72	
83	
70	
91	
85	
111	
90	
82	
81	
89	
75	
72	
85	
78	
88	
81	
82	
72	
81	
69	
73	
87	
90	
75	
88	
78	
69	
90	
86	
85	
65	
79	
79	
68	
84	
80	
89	
90	
87	
85	
71	
90	
74	
85	
81	
82	
74	
76	
64	
71	
83	
92	
71	
90	
63	
66	
88	
74	
86	
91	
77	
64	
73	
73	
81	
64	
75	
72	
86	
63	
86	
76	
82	
74	
73	
77	
57	
83	
87	
73	
80	
70	
85	
86	
80	
94	
77	
73	
92	
62	
83	
74	
83	
79	
80	
73	
75	
61	
83	
62	
71	
78	
59	
73	
64	
98	
65	
71	
92	
80	
83	
82	
83	
86	
