#PicoHarp 300  Histogram Data			05/25/2022 05:16:32 PM
#channels per curve
31250
#display curve no.
0	
#memory block no.
0	
#ns/channel
0.0320	
#counts
5	
1	
10	
7	
8	
6	
5	
8	
5	
4	
2	
4	
5	
4	
6	
4	
2	
5	
4	
4	
4	
6	
2	
3	
10	
5	
5	
5	
5	
7	
1	
2	
3	
2	
2	
2	
3	
3	
5	
5	
4	
1	
7	
4	
2	
2	
4	
6	
6	
3	
10	
1	
3	
2	
4	
6	
6	
4	
2	
7	
6	
2	
3	
2	
5	
6	
7	
12	
5	
2	
3	
5	
4	
3	
4	
11	
5	
6	
2	
8	
7	
4	
6	
1	
4	
6	
4	
4	
7	
7	
4	
1	
2	
5	
1	
7	
7	
5	
6	
3	
4	
8	
8	
4	
5	
6	
3	
0	
2	
1	
3	
3	
2	
9	
9	
6	
3	
11	
6	
6	
4	
3	
6	
10	
7	
5	
4	
4	
1	
2	
4	
6	
8	
3	
3	
5	
4	
3	
4	
2	
5	
4	
7	
5	
3	
3	
5	
5	
5	
4	
4	
3	
2	
3	
6	
4	
2	
7	
5	
5	
8	
5	
3	
5	
3	
3	
5	
4	
3	
1	
1	
4	
3	
6	
9	
6	
7	
2	
3	
6	
2	
5	
4	
2	
4	
4	
7	
5	
3	
1	
2	
2	
5	
9	
5	
6	
3	
5	
5	
5	
4	
3	
8	
6	
8	
7	
8	
6	
1	
3	
3	
7	
4	
5	
2	
3	
1	
3	
7	
6	
3	
5	
9	
3	
4	
5	
3	
4	
6	
2	
4	
4	
2	
5	
7	
4	
7	
1	
5	
6	
3	
4	
5	
6	
3	
6	
4	
3	
5	
1	
5	
1	
3	
2	
6	
8	
3	
5	
4	
3	
8	
2	
5	
4	
7	
5	
1	
4	
8	
8	
5	
6	
6	
3	
3	
3	
3	
5	
10	
3	
5	
4	
8	
9	
5	
7	
4	
4	
1	
2	
4	
4	
4	
1	
4	
3	
1	
4	
3	
7	
2	
0	
2	
4	
1	
8	
9	
2	
2	
5	
5	
7	
6	
2	
4	
1	
5	
4	
6	
2	
6	
3	
2	
3	
3	
7	
6	
4	
6	
4	
1	
4	
6	
4	
3	
3	
5	
6	
6	
7	
7	
9	
6	
8	
3	
4	
7	
6	
5	
8	
5	
5	
2	
4	
6	
5	
7	
1	
3	
9	
3	
9	
6	
4	
4	
6	
3	
6	
5	
4	
3	
6	
5	
9	
5	
6	
2	
5	
4	
2	
6	
2	
2	
8	
2	
3	
6	
6	
7	
2	
3	
9	
5	
5	
4	
10	
2	
3	
2	
5	
5	
5	
5	
4	
5	
3	
5	
2	
5	
8	
5	
3	
8	
0	
5	
5	
3	
7	
6	
3	
5	
6	
5	
6	
0	
5	
7	
6	
3	
6	
4	
6	
5	
7	
4	
5	
3	
2	
5	
4	
5	
3	
7	
2	
4	
4	
8	
7	
7	
3	
6	
4	
4	
5	
8	
5	
4	
4	
1	
4	
5	
8	
12	
0	
6	
4	
7	
5	
4	
5	
6	
2	
3	
6	
5	
10	
6	
7	
5	
10	
8	
7	
5	
5	
2	
7	
5	
7	
3	
6	
4	
8	
6	
5	
8	
8	
4	
2	
7	
3	
5	
5	
7	
5	
6	
6	
3	
5	
3	
2	
2	
2	
1	
4	
7	
7	
4	
2	
6	
5	
8	
5	
6	
5	
2	
7	
8	
1	
7	
3	
6	
8	
0	
7	
7	
4	
4	
5	
2	
3	
2	
4	
5	
3	
2	
5	
6	
6	
3	
9	
7	
3	
4	
2	
3	
7	
3	
10	
3	
8	
4	
2	
3	
7	
5	
3	
3	
3	
3	
5	
6	
6	
8	
4	
6	
2	
6	
1	
6	
3	
3	
8	
2	
3	
1	
5	
2	
2	
4	
2	
4	
2	
6	
5	
1	
8	
9	
2	
4	
3	
3	
5	
4	
1	
5	
2	
5	
6	
1	
3	
9	
3	
2	
5	
3	
3	
4	
7	
1	
2	
3	
9	
2	
3	
5	
5	
1	
1	
2	
3	
4	
1	
7	
6	
7	
3	
2	
2	
7	
6	
6	
7	
5	
5	
6	
3	
5	
6	
7	
9	
9	
5	
2	
1	
4	
5	
4	
2	
2	
2	
4	
9	
6	
5	
4	
4	
6	
5	
6	
6	
4	
7	
2	
5	
2	
7	
4	
6	
6	
2	
6	
5	
2	
9	
10	
5	
4	
3	
1	
6	
6	
5	
5	
3	
6	
6	
3	
4	
4	
2	
6	
5	
4	
4	
3	
1	
6	
5	
5	
3	
7	
9	
7	
7	
1	
7	
4	
1	
5	
5	
4	
4	
3	
6	
2	
4	
2	
5	
6	
5	
5	
3	
6	
2	
6	
5	
4	
10	
1	
5	
7	
7	
5	
7	
1	
2	
3	
3	
6	
3	
2	
8	
10	
4	
5	
5	
5	
6	
2	
6	
2	
6	
6	
2	
3	
5	
3	
7	
2	
4	
7	
4	
6	
2	
4	
5	
2	
4	
10	
5	
6	
5	
5	
7	
4	
7	
7	
2	
4	
6	
3	
3	
6	
1	
3	
0	
4	
6	
4	
4	
3	
5	
2	
4	
6	
1	
2	
5	
4	
3	
6	
5	
4	
5	
3	
4	
4	
5	
4	
5	
7	
2	
4	
4	
2	
6	
4	
7	
3	
5	
6	
1	
4	
7	
7	
4	
2	
2	
7	
3	
6	
5	
6	
5	
7	
6	
4	
4	
10	
5	
2	
4	
2	
4	
8	
7	
7	
4	
3	
2	
6	
2	
5	
7	
3	
3	
3	
7	
4	
5	
2	
3	
6	
8	
7	
2	
2	
9	
2	
4	
3	
6	
7	
1	
9	
4	
6	
6	
4	
2	
8	
7	
3	
6	
4	
5	
3	
3	
3	
6	
2	
5	
8	
5	
4	
7	
3	
3	
4	
5	
6	
5	
3	
5	
6	
4	
8	
2	
2	
3	
2	
3	
3	
4	
3	
2	
4	
3	
3	
6	
5	
8	
1	
4	
2	
5	
7	
2	
4	
5	
4	
3	
6	
7	
3	
4	
2	
2	
5	
2	
7	
2	
6	
3	
4	
8	
8	
6	
5	
5	
10	
11	
4	
7	
6	
6	
11	
10	
9	
18	
11	
15	
12	
18	
15	
29	
28	
25	
52	
51	
58	
55	
75	
88	
89	
102	
129	
162	
209	
185	
198	
242	
296	
339	
344	
405	
408	
477	
508	
566	
560	
598	
685	
691	
714	
702	
765	
746	
829	
863	
848	
864	
915	
903	
906	
890	
944	
934	
932	
974	
967	
922	
979	
956	
908	
943	
963	
937	
955	
988	
994	
969	
937	
984	
963	
898	
893	
952	
1000	
950	
897	
928	
968	
978	
952	
950	
915	
915	
888	
892	
872	
903	
887	
888	
876	
906	
910	
871	
871	
925	
913	
852	
949	
892	
889	
874	
865	
859	
847	
896	
883	
885	
865	
891	
825	
858	
861	
820	
844	
851	
798	
821	
865	
866	
804	
869	
821	
842	
858	
849	
853	
848	
755	
826	
787	
791	
840	
836	
821	
813	
858	
799	
837	
778	
812	
783	
822	
806	
822	
836	
811	
803	
778	
768	
784	
765	
801	
779	
793	
751	
765	
767	
752	
791	
757	
741	
798	
757	
764	
805	
780	
773	
752	
742	
783	
736	
726	
776	
739	
762	
773	
778	
733	
774	
792	
750	
696	
769	
736	
693	
765	
736	
736	
778	
736	
731	
738	
768	
730	
735	
700	
671	
688	
721	
699	
734	
733	
723	
720	
756	
741	
718	
746	
759	
660	
729	
712	
703	
742	
684	
721	
746	
738	
698	
727	
636	
681	
747	
705	
713	
744	
683	
660	
707	
664	
674	
655	
726	
711	
638	
682	
717	
688	
669	
664	
684	
675	
659	
697	
666	
687	
665	
662	
711	
653	
692	
651	
666	
707	
702	
708	
631	
704	
625	
713	
691	
664	
657	
664	
684	
628	
705	
710	
646	
632	
621	
657	
692	
674	
634	
685	
670	
656	
641	
608	
604	
643	
628	
662	
649	
684	
642	
598	
632	
682	
679	
649	
635	
667	
652	
609	
681	
656	
655	
650	
640	
631	
577	
664	
699	
667	
672	
615	
642	
670	
610	
670	
574	
601	
641	
613	
614	
627	
637	
641	
576	
594	
644	
628	
659	
650	
585	
626	
625	
627	
657	
629	
621	
601	
658	
626	
644	
602	
611	
631	
624	
592	
612	
596	
634	
614	
645	
650	
612	
613	
582	
604	
607	
596	
578	
605	
616	
634	
617	
609	
584	
572	
582	
583	
602	
614	
564	
641	
613	
693	
566	
568	
594	
587	
590	
602	
629	
573	
567	
591	
607	
591	
580	
577	
601	
593	
634	
586	
585	
524	
582	
596	
576	
582	
580	
602	
580	
576	
556	
595	
601	
559	
573	
570	
585	
559	
553	
597	
578	
574	
583	
555	
575	
588	
568	
586	
585	
570	
591	
555	
547	
564	
553	
605	
576	
560	
517	
568	
583	
617	
563	
581	
566	
576	
570	
569	
593	
553	
551	
558	
575	
605	
541	
539	
540	
575	
553	
580	
590	
519	
531	
535	
572	
527	
545	
559	
590	
547	
525	
549	
546	
568	
561	
515	
563	
522	
559	
576	
519	
532	
577	
525	
575	
565	
564	
552	
564	
507	
575	
570	
551	
521	
529	
564	
559	
566	
550	
574	
567	
525	
510	
529	
595	
521	
514	
534	
550	
535	
553	
541	
509	
551	
473	
532	
510	
546	
545	
515	
506	
552	
527	
516	
506	
529	
554	
550	
512	
476	
523	
561	
558	
571	
547	
542	
516	
522	
528	
521	
524	
521	
537	
517	
542	
515	
545	
505	
525	
511	
530	
517	
503	
492	
477	
565	
485	
538	
510	
480	
499	
565	
487	
474	
525	
546	
511	
513	
513	
482	
499	
559	
497	
531	
541	
505	
511	
487	
500	
447	
562	
493	
520	
457	
513	
491	
524	
496	
481	
508	
476	
502	
529	
463	
526	
487	
447	
487	
504	
477	
477	
482	
535	
504	
458	
477	
491	
493	
513	
480	
480	
456	
521	
467	
447	
533	
461	
510	
476	
487	
515	
485	
486	
533	
483	
500	
477	
491	
520	
474	
457	
469	
481	
499	
472	
492	
484	
470	
477	
468	
478	
491	
486	
461	
475	
465	
465	
433	
475	
488	
498	
450	
482	
479	
494	
463	
474	
479	
472	
500	
450	
510	
476	
479	
432	
447	
453	
480	
460	
450	
441	
455	
464	
493	
456	
477	
469	
434	
470	
468	
459	
466	
446	
487	
470	
478	
488	
458	
473	
480	
457	
502	
476	
464	
469	
459	
463	
478	
486	
491	
493	
470	
500	
464	
466	
476	
482	
468	
453	
472	
480	
513	
445	
405	
481	
494	
413	
412	
435	
472	
457	
454	
462	
458	
468	
433	
450	
486	
441	
457	
489	
441	
466	
409	
470	
446	
472	
478	
482	
443	
473	
465	
447	
485	
410	
407	
460	
447	
422	
447	
463	
433	
429	
425	
416	
429	
429	
455	
459	
442	
435	
496	
436	
437	
456	
416	
460	
433	
467	
449	
456	
452	
424	
442	
466	
443	
437	
433	
417	
422	
413	
443	
448	
443	
426	
412	
465	
420	
454	
434	
443	
417	
432	
450	
435	
405	
403	
423	
418	
435	
407	
454	
427	
465	
429	
430	
420	
471	
421	
429	
434	
406	
491	
459	
459	
460	
409	
460	
437	
442	
460	
419	
432	
376	
422	
429	
434	
463	
420	
416	
461	
395	
439	
435	
443	
456	
418	
405	
425	
421	
403	
439	
406	
404	
438	
433	
413	
381	
409	
440	
411	
421	
412	
401	
431	
419	
403	
421	
429	
337	
418	
388	
401	
440	
446	
389	
402	
415	
400	
410	
443	
421	
465	
418	
405	
420	
447	
425	
425	
398	
403	
413	
443	
409	
440	
421	
433	
428	
429	
415	
438	
409	
393	
394	
466	
424	
416	
433	
405	
391	
407	
425	
412	
397	
402	
429	
381	
397	
448	
420	
399	
390	
404	
410	
431	
415	
356	
414	
432	
454	
405	
398	
419	
405	
420	
434	
398	
384	
411	
411	
399	
408	
416	
383	
404	
432	
393	
386	
374	
374	
383	
410	
424	
410	
373	
402	
394	
407	
372	
360	
433	
365	
418	
389	
404	
385	
397	
393	
357	
355	
448	
371	
392	
393	
395	
363	
355	
401	
390	
377	
379	
418	
415	
413	
370	
372	
375	
389	
417	
388	
375	
383	
375	
417	
378	
388	
373	
375	
405	
389	
339	
385	
387	
355	
372	
388	
378	
370	
387	
410	
385	
354	
373	
369	
401	
406	
376	
346	
359	
390	
381	
357	
367	
409	
403	
375	
374	
377	
388	
387	
401	
395	
403	
400	
387	
392	
373	
371	
358	
378	
375	
374	
390	
372	
375	
353	
363	
412	
370	
358	
388	
413	
391	
394	
383	
354	
366	
339	
375	
360	
414	
378	
355	
383	
410	
348	
368	
391	
386	
361	
368	
359	
399	
330	
395	
345	
344	
334	
375	
374	
364	
393	
372	
357	
374	
374	
358	
370	
350	
355	
391	
393	
363	
357	
395	
411	
366	
379	
359	
408	
390	
382	
397	
356	
384	
365	
379	
363	
385	
368	
345	
354	
349	
335	
349	
363	
376	
352	
388	
358	
405	
351	
396	
357	
360	
384	
378	
352	
377	
350	
326	
344	
392	
340	
343	
372	
343	
322	
346	
391	
371	
341	
353	
339	
359	
380	
351	
387	
377	
384	
408	
366	
369	
339	
329	
342	
377	
352	
350	
360	
362	
377	
365	
329	
381	
366	
362	
386	
394	
313	
359	
379	
398	
358	
359	
358	
334	
408	
357	
325	
338	
299	
336	
349	
313	
348	
333	
337	
368	
356	
335	
353	
355	
354	
358	
346	
333	
365	
329	
366	
332	
366	
371	
353	
363	
349	
383	
318	
328	
345	
339	
343	
351	
361	
360	
305	
372	
338	
332	
330	
364	
334	
336	
358	
362	
294	
367	
355	
340	
354	
353	
354	
342	
345	
370	
320	
313	
353	
324	
357	
315	
330	
352	
348	
327	
309	
347	
338	
339	
358	
325	
345	
326	
345	
379	
340	
311	
347	
339	
351	
318	
352	
329	
339	
353	
350	
353	
329	
320	
325	
335	
285	
323	
333	
327	
343	
347	
344	
353	
335	
339	
354	
340	
331	
329	
343	
323	
334	
369	
323	
332	
320	
336	
353	
310	
330	
336	
313	
334	
318	
324	
339	
356	
334	
325	
303	
325	
320	
353	
329	
332	
313	
374	
329	
336	
321	
289	
347	
335	
351	
306	
344	
312	
322	
317	
316	
328	
316	
353	
326	
303	
345	
287	
320	
323	
350	
335	
324	
339	
299	
314	
320	
334	
318	
345	
344	
355	
311	
280	
308	
329	
335	
325	
306	
324	
322	
311	
305	
344	
344	
317	
328	
308	
325	
334	
283	
315	
354	
317	
317	
352	
307	
357	
340	
313	
293	
323	
313	
305	
320	
335	
328	
328	
301	
293	
322	
341	
350	
298	
316	
339	
301	
349	
330	
301	
326	
304	
300	
307	
301	
284	
300	
320	
304	
340	
286	
302	
321	
321	
337	
303	
296	
293	
302	
315	
320	
312	
300	
315	
327	
315	
330	
315	
318	
282	
302	
327	
304	
324	
311	
322	
300	
302	
318	
320	
332	
319	
301	
291	
312	
308	
287	
296	
308	
269	
298	
320	
308	
310	
296	
285	
303	
302	
287	
302	
295	
318	
325	
313	
287	
296	
305	
332	
333	
286	
285	
299	
281	
333	
299	
334	
296	
305	
328	
322	
303	
314	
279	
298	
289	
302	
297	
289	
304	
299	
294	
313	
263	
318	
282	
292	
291	
332	
275	
330	
281	
335	
277	
305	
307	
287	
325	
279	
280	
300	
299	
291	
287	
307	
313	
277	
296	
316	
283	
292	
304	
290	
289	
280	
292	
313	
322	
305	
314	
270	
281	
263	
301	
304	
291	
268	
287	
276	
307	
313	
269	
301	
300	
270	
309	
297	
299	
319	
339	
272	
293	
315	
304	
281	
276	
278	
309	
306	
290	
306	
273	
263	
301	
306	
308	
317	
304	
292	
307	
293	
249	
323	
270	
292	
293	
274	
290	
277	
315	
278	
271	
246	
315	
259	
259	
274	
302	
283	
260	
289	
261	
272	
304	
284	
290	
281	
279	
277	
292	
286	
282	
291	
304	
267	
267	
296	
253	
293	
287	
285	
274	
256	
290	
290	
291	
276	
262	
296	
302	
282	
293	
284	
266	
328	
300	
260	
288	
266	
277	
276	
298	
274	
293	
269	
267	
253	
287	
299	
261	
279	
284	
263	
282	
268	
271	
277	
235	
266	
290	
257	
251	
261	
276	
259	
257	
291	
283	
280	
277	
305	
264	
275	
301	
282	
309	
297	
287	
270	
272	
293	
269	
265	
269	
277	
285	
242	
295	
241	
249	
283	
265	
269	
278	
291	
283	
252	
279	
253	
278	
265	
285	
271	
264	
265	
297	
285	
248	
292	
276	
254	
262	
274	
295	
284	
253	
273	
286	
280	
263	
310	
269	
273	
267	
263	
272	
262	
259	
289	
270	
258	
232	
263	
265	
276	
269	
272	
278	
277	
253	
244	
274	
278	
252	
257	
309	
256	
274	
266	
272	
275	
277	
288	
229	
266	
266	
304	
260	
274	
244	
284	
287	
227	
276	
271	
264	
278	
270	
264	
238	
282	
286	
254	
277	
256	
236	
270	
245	
272	
263	
257	
244	
256	
235	
282	
267	
273	
265	
267	
269	
243	
309	
237	
221	
268	
264	
233	
274	
277	
265	
261	
244	
292	
256	
254	
245	
260	
255	
246	
253	
227	
255	
296	
256	
261	
255	
260	
269	
259	
235	
245	
253	
258	
278	
269	
254	
257	
273	
264	
253	
255	
248	
267	
229	
265	
249	
256	
279	
251	
244	
263	
266	
240	
255	
254	
272	
231	
247	
250	
265	
257	
273	
241	
246	
286	
258	
250	
253	
262	
274	
249	
272	
244	
243	
244	
259	
255	
246	
239	
244	
262	
249	
254	
259	
239	
245	
230	
281	
274	
249	
224	
241	
250	
268	
218	
280	
258	
252	
244	
249	
262	
269	
245	
250	
238	
262	
241	
247	
235	
244	
252	
253	
241	
269	
272	
262	
254	
253	
257	
254	
246	
271	
257	
240	
271	
258	
259	
250	
249	
270	
269	
248	
243	
264	
265	
254	
266	
246	
234	
260	
237	
251	
234	
265	
236	
277	
278	
242	
254	
246	
248	
271	
249	
249	
270	
270	
245	
229	
259	
243	
241	
220	
233	
236	
219	
276	
252	
256	
212	
250	
246	
202	
273	
236	
231	
257	
258	
243	
221	
244	
218	
216	
228	
286	
238	
249	
222	
258	
244	
245	
242	
255	
239	
217	
211	
249	
238	
238	
253	
251	
240	
261	
261	
255	
245	
256	
232	
248	
246	
258	
232	
207	
225	
232	
227	
238	
239	
267	
219	
259	
277	
229	
243	
254	
222	
213	
245	
243	
241	
268	
246	
225	
263	
236	
242	
218	
234	
256	
253	
235	
228	
266	
223	
226	
253	
233	
221	
235	
247	
231	
233	
251	
241	
249	
252	
263	
253	
237	
236	
251	
214	
237	
266	
237	
233	
234	
219	
253	
248	
224	
251	
247	
243	
230	
255	
216	
216	
227	
225	
217	
253	
283	
208	
213	
222	
236	
235	
257	
220	
225	
262	
246	
204	
219	
202	
251	
223	
257	
235	
225	
215	
226	
261	
213	
233	
248	
253	
223	
231	
211	
212	
228	
233	
218	
241	
240	
225	
239	
237	
216	
228	
248	
232	
219	
231	
219	
254	
232	
222	
204	
217	
257	
237	
213	
211	
238	
253	
237	
199	
199	
220	
263	
210	
210	
212	
209	
227	
223	
221	
227	
223	
252	
205	
223	
218	
229	
221	
248	
226	
208	
233	
216	
240	
210	
234	
231	
211	
208	
226	
218	
219	
228	
223	
230	
207	
225	
241	
228	
210	
239	
236	
233	
219	
208	
211	
216	
232	
192	
194	
218	
204	
206	
219	
200	
256	
221	
231	
215	
226	
238	
210	
200	
214	
205	
230	
214	
231	
213	
229	
205	
214	
227	
222	
229	
244	
247	
216	
237	
198	
238	
219	
194	
235	
201	
216	
225	
195	
250	
205	
233	
192	
193	
206	
243	
227	
232	
219	
215	
217	
235	
227	
218	
211	
221	
199	
193	
212	
237	
200	
228	
216	
215	
193	
234	
219	
212	
231	
216	
188	
230	
195	
226	
228	
229	
215	
216	
196	
225	
220	
202	
206	
205	
206	
254	
253	
202	
232	
197	
194	
206	
205	
210	
221	
260	
209	
214	
219	
203	
192	
214	
212	
221	
233	
227	
200	
208	
221	
190	
233	
202	
200	
242	
217	
200	
242	
229	
230	
210	
207	
220	
223	
227	
202	
173	
222	
211	
215	
233	
199	
210	
205	
185	
222	
206	
201	
196	
221	
193	
236	
213	
219	
196	
214	
217	
216	
236	
207	
202	
200	
198	
199	
197	
197	
193	
184	
183	
189	
222	
204	
200	
197	
205	
217	
200	
175	
207	
212	
199	
233	
206	
235	
215	
221	
196	
193	
194	
197	
206	
220	
209	
213	
203	
209	
213	
202	
219	
179	
225	
203	
201	
193	
200	
198	
184	
214	
189	
191	
201	
204	
210	
219	
232	
195	
199	
211	
181	
203	
182	
206	
199	
202	
206	
181	
216	
203	
223	
229	
216	
208	
196	
204	
189	
190	
221	
210	
211	
207	
192	
209	
195	
191	
190	
207	
183	
204	
196	
198	
181	
181	
215	
203	
212	
200	
210	
198	
204	
220	
211	
208	
186	
202	
195	
207	
193	
190	
216	
179	
208	
220	
172	
185	
210	
181	
212	
198	
200	
218	
186	
198	
201	
214	
210	
215	
207	
225	
192	
202	
205	
194	
184	
190	
207	
188	
211	
196	
187	
218	
196	
189	
200	
177	
205	
194	
180	
195	
203	
194	
220	
208	
197	
191	
210	
200	
192	
178	
173	
183	
188	
179	
200	
186	
204	
167	
222	
195	
200	
186	
208	
171	
198	
228	
180	
198	
217	
188	
202	
182	
189	
216	
184	
209	
202	
139	
190	
199	
189	
202	
197	
201	
187	
185	
205	
200	
207	
188	
195	
184	
173	
174	
215	
199	
198	
200	
188	
198	
177	
187	
204	
176	
201	
177	
199	
177	
181	
174	
180	
198	
190	
167	
195	
165	
199	
171	
190	
180	
177	
207	
183	
187	
211	
190	
226	
174	
197	
195	
199	
179	
192	
194	
210	
212	
178	
183	
202	
208	
191	
188	
196	
219	
206	
187	
199	
191	
196	
189	
180	
177	
196	
209	
211	
171	
193	
181	
202	
175	
190	
184	
198	
176	
183	
194	
184	
175	
180	
197	
204	
205	
207	
176	
190	
177	
193	
189	
204	
208	
210	
191	
175	
171	
202	
216	
186	
198	
213	
185	
191	
198	
184	
196	
196	
194	
201	
176	
188	
171	
201	
192	
175	
184	
191	
204	
204	
177	
191	
182	
202	
195	
186	
200	
174	
174	
184	
200	
199	
195	
188	
191	
183	
189	
192	
159	
181	
217	
188	
170	
184	
173	
218	
187	
188	
174	
196	
186	
190	
191	
175	
180	
198	
149	
168	
191	
175	
185	
192	
201	
190	
179	
176	
178	
212	
205	
150	
180	
185	
191	
179	
157	
158	
188	
238	
185	
180	
182	
177	
191	
172	
193	
198	
196	
170	
198	
194	
181	
187	
169	
168	
174	
167	
176	
169	
152	
167	
202	
186	
187	
175	
162	
194	
160	
167	
153	
198	
173	
200	
191	
197	
147	
176	
182	
207	
165	
192	
177	
189	
168	
184	
170	
200	
177	
172	
179	
178	
173	
166	
165	
175	
189	
185	
192	
161	
192	
169	
177	
184	
157	
174	
173	
174	
186	
197	
195	
197	
174	
176	
180	
182	
182	
174	
175	
161	
176	
198	
144	
183	
180	
188	
198	
188	
203	
164	
167	
153	
189	
176	
176	
170	
164	
158	
170	
168	
159	
169	
166	
144	
185	
190	
203	
176	
163	
167	
168	
174	
174	
170	
199	
193	
182	
191	
168	
159	
159	
166	
168	
180	
158	
177	
174	
207	
185	
162	
166	
178	
138	
200	
181	
169	
167	
173	
193	
188	
155	
180	
175	
184	
186	
168	
195	
202	
170	
156	
164	
191	
183	
183	
182	
179	
152	
181	
153	
171	
178	
194	
161	
161	
152	
186	
161	
162	
155	
157	
184	
162	
180	
189	
158	
141	
191	
165	
156	
159	
159	
164	
163	
162	
180	
171	
152	
159	
184	
187	
182	
176	
186	
153	
166	
180	
169	
168	
162	
178	
171	
177	
148	
181	
159	
175	
176	
168	
155	
181	
181	
153	
176	
163	
147	
167	
179	
173	
165	
183	
162	
171	
182	
180	
165	
162	
162	
176	
181	
167	
154	
157	
156	
156	
175	
166	
170	
173	
175	
147	
170	
166	
173	
173	
168	
203	
157	
149	
170	
175	
156	
158	
161	
184	
171	
169	
157	
180	
156	
188	
158	
165	
167	
167	
149	
168	
182	
171	
177	
143	
185	
145	
172	
161	
188	
196	
185	
168	
161	
130	
171	
183	
166	
142	
165	
181	
169	
169	
163	
173	
179	
158	
166	
152	
135	
166	
164	
179	
167	
176	
159	
150	
154	
183	
168	
148	
152	
178	
167	
165	
167	
156	
160	
159	
141	
177	
159	
165	
151	
150	
162	
170	
165	
175	
182	
147	
153	
181	
157	
164	
170	
150	
159	
172	
147	
160	
157	
152	
164	
153	
151	
168	
152	
157	
171	
171	
157	
169	
152	
162	
123	
155	
160	
152	
174	
161	
160	
161	
155	
155	
149	
161	
160	
182	
157	
154	
161	
154	
161	
171	
158	
165	
151	
169	
188	
150	
175	
158	
136	
169	
168	
166	
169	
147	
157	
159	
160	
141	
152	
161	
158	
152	
129	
159	
141	
153	
175	
187	
137	
150	
151	
155	
190	
164	
161	
149	
159	
148	
195	
166	
136	
167	
160	
166	
166	
140	
165	
178	
161	
156	
144	
162	
152	
157	
178	
150	
160	
167	
139	
157	
140	
174	
149	
173	
145	
140	
145	
136	
144	
155	
160	
151	
154	
135	
142	
137	
136	
152	
131	
136	
150	
140	
151	
141	
177	
160	
161	
158	
149	
140	
168	
179	
182	
174	
155	
177	
144	
138	
160	
161	
159	
173	
151	
150	
165	
167	
153	
161	
174	
175	
130	
154	
156	
165	
159	
155	
128	
161	
166	
157	
175	
142	
175	
175	
157	
174	
145	
167	
158	
152	
158	
146	
153	
171	
142	
141	
145	
146	
160	
140	
145	
130	
149	
178	
155	
146	
151	
163	
150	
150	
132	
153	
140	
152	
171	
150	
144	
143	
151	
150	
148	
148	
152	
151	
136	
132	
149	
154	
139	
172	
150	
139	
164	
155	
161	
131	
142	
152	
143	
135	
165	
153	
156	
138	
146	
165	
161	
145	
155	
153	
140	
158	
141	
168	
138	
162	
178	
164	
164	
145	
161	
151	
140	
143	
164	
152	
144	
151	
146	
163	
148	
161	
148	
171	
150	
163	
132	
138	
157	
142	
155	
130	
148	
130	
175	
149	
163	
139	
157	
144	
145	
156	
163	
165	
149	
138	
145	
149	
136	
131	
153	
145	
152	
155	
157	
123	
149	
125	
139	
146	
153	
146	
143	
130	
132	
146	
165	
137	
138	
132	
150	
166	
139	
159	
138	
132	
159	
143	
173	
142	
142	
140	
128	
147	
146	
155	
144	
163	
129	
158	
150	
157	
148	
122	
146	
142	
132	
160	
146	
164	
158	
166	
147	
133	
158	
137	
147	
129	
143	
144	
154	
140	
162	
137	
183	
167	
152	
134	
157	
138	
125	
144	
148	
141	
162	
146	
132	
144	
153	
143	
129	
138	
130	
152	
160	
154	
162	
149	
156	
120	
146	
149	
132	
167	
131	
141	
131	
141	
128	
152	
137	
169	
147	
136	
130	
129	
125	
156	
160	
154	
158	
154	
157	
135	
125	
153	
136	
163	
146	
148	
135	
138	
155	
144	
138	
155	
135	
127	
143	
137	
143	
138	
143	
138	
142	
147	
147	
132	
156	
144	
135	
133	
143	
114	
157	
138	
160	
134	
139	
157	
141	
165	
122	
151	
120	
148	
132	
162	
152	
133	
142	
157	
136	
143	
150	
121	
153	
124	
151	
139	
143	
142	
146	
161	
138	
154	
133	
128	
132	
139	
145	
146	
122	
140	
131	
136	
141	
137	
141	
150	
120	
145	
158	
127	
130	
139	
138	
159	
146	
124	
141	
133	
135	
144	
131	
153	
138	
154	
152	
116	
153	
133	
148	
123	
160	
117	
138	
141	
152	
133	
149	
128	
127	
149	
134	
124	
128	
129	
135	
122	
129	
141	
142	
133	
127	
133	
151	
132	
128	
144	
148	
122	
159	
144	
129	
120	
136	
142	
133	
141	
117	
143	
118	
131	
136	
127	
146	
142	
127	
133	
146	
138	
129	
130	
133	
126	
136	
148	
123	
159	
131	
131	
150	
158	
143	
140	
126	
131	
140	
153	
133	
136	
124	
122	
138	
152	
140	
144	
153	
127	
126	
130	
131	
132	
148	
133	
134	
130	
122	
131	
151	
116	
127	
117	
128	
119	
111	
126	
141	
150	
141	
131	
161	
166	
118	
135	
150	
137	
139	
142	
130	
132	
130	
119	
135	
133	
131	
141	
110	
145	
129	
136	
138	
133	
112	
144	
133	
115	
111	
119	
127	
142	
146	
104	
130	
116	
126	
134	
142	
136	
124	
125	
116	
138	
130	
132	
118	
119	
120	
142	
127	
126	
123	
125	
132	
141	
129	
125	
150	
131	
131	
133	
141	
120	
132	
126	
135	
132	
127	
133	
133	
124	
119	
150	
131	
138	
118	
137	
123	
145	
144	
137	
131	
135	
156	
137	
130	
139	
123	
153	
132	
129	
130	
116	
131	
119	
114	
113	
110	
134	
128	
140	
142	
126	
135	
145	
116	
142	
127	
131	
121	
135	
130	
141	
159	
148	
117	
143	
134	
117	
136	
125	
120	
116	
138	
118	
137	
116	
127	
123	
146	
134	
140	
113	
117	
130	
122	
123	
131	
118	
132	
135	
141	
107	
133	
120	
125	
134	
134	
132	
108	
130	
139	
137	
154	
114	
118	
112	
133	
124	
119	
118	
137	
122	
131	
113	
129	
128	
128	
136	
155	
143	
129	
130	
134	
101	
131	
154	
141	
119	
100	
141	
122	
123	
124	
124	
129	
116	
118	
107	
135	
134	
118	
123	
124	
123	
144	
100	
139	
126	
133	
125	
134	
152	
128	
135	
127	
129	
103	
128	
125	
126	
112	
118	
127	
138	
130	
109	
126	
133	
134	
132	
113	
130	
120	
125	
119	
134	
128	
120	
103	
137	
137	
106	
124	
136	
115	
130	
121	
118	
136	
121	
106	
138	
124	
108	
109	
108	
106	
134	
133	
124	
116	
137	
128	
126	
126	
112	
110	
121	
115	
115	
142	
133	
122	
128	
124	
108	
131	
115	
114	
156	
127	
120	
141	
110	
114	
128	
120	
117	
131	
123	
125	
150	
127	
128	
114	
117	
136	
122	
114	
126	
120	
122	
119	
111	
108	
139	
129	
118	
125	
126	
116	
117	
121	
114	
131	
122	
133	
142	
105	
123	
118	
114	
134	
107	
110	
134	
137	
118	
132	
100	
130	
127	
135	
122	
103	
124	
119	
122	
115	
117	
114	
112	
124	
125	
125	
113	
129	
121	
118	
120	
96	
105	
118	
117	
110	
113	
122	
121	
129	
129	
119	
114	
103	
108	
133	
123	
111	
115	
114	
127	
135	
127	
117	
122	
119	
140	
114	
115	
120	
131	
104	
89	
104	
125	
117	
127	
139	
115	
120	
124	
125	
93	
124	
115	
118	
126	
140	
119	
122	
137	
105	
123	
117	
115	
132	
112	
108	
140	
118	
118	
109	
100	
106	
128	
118	
106	
126	
122	
136	
128	
121	
138	
116	
110	
128	
126	
114	
118	
128	
109	
128	
112	
120	
116	
120	
99	
113	
127	
142	
137	
110	
115	
116	
124	
134	
130	
116	
112	
113	
109	
111	
111	
100	
116	
102	
122	
107	
120	
124	
134	
134	
118	
111	
120	
112	
134	
102	
108	
106	
101	
114	
128	
96	
113	
119	
110	
100	
129	
109	
108	
97	
130	
107	
118	
109	
117	
120	
121	
122	
123	
100	
89	
122	
124	
112	
127	
101	
111	
108	
110	
115	
105	
114	
118	
105	
114	
124	
108	
122	
120	
109	
110	
113	
115	
108	
132	
119	
121	
90	
107	
102	
126	
115	
125	
105	
119	
111	
109	
132	
123	
107	
122	
114	
112	
130	
105	
133	
139	
106	
110	
98	
119	
95	
112	
135	
102	
116	
128	
123	
126	
102	
111	
122	
103	
112	
116	
126	
128	
121	
118	
94	
111	
110	
100	
125	
110	
110	
125	
102	
102	
97	
116	
103	
117	
110	
130	
107	
117	
109	
122	
106	
115	
99	
126	
100	
113	
104	
108	
113	
117	
108	
107	
99	
113	
129	
103	
129	
121	
134	
116	
110	
123	
127	
114	
94	
104	
108	
124	
121	
83	
94	
127	
104	
138	
129	
125	
116	
89	
98	
123	
101	
121	
122	
127	
97	
97	
112	
110	
118	
114	
114	
106	
114	
99	
135	
110	
107	
100	
128	
115	
107	
96	
118	
98	
109	
116	
108	
118	
130	
93	
107	
85	
113	
111	
122	
106	
109	
115	
136	
102	
109	
128	
137	
107	
108	
106	
115	
113	
112	
118	
123	
91	
104	
116	
104	
101	
130	
111	
111	
91	
125	
106	
103	
108	
111	
106	
103	
104	
101	
122	
110	
125	
110	
103	
105	
108	
122	
121	
129	
88	
95	
119	
115	
113	
119	
92	
132	
124	
112	
120	
98	
98	
118	
103	
92	
90	
114	
130	
119	
114	
105	
108	
96	
93	
110	
108	
119	
88	
111	
123	
122	
109	
121	
94	
103	
104	
96	
100	
110	
124	
113	
123	
101	
121	
95	
114	
109	
109	
125	
108	
111	
128	
103	
102	
109	
108	
116	
97	
123	
87	
123	
105	
107	
99	
97	
94	
113	
104	
142	
98	
95	
106	
111	
115	
118	
105	
101	
105	
109	
112	
88	
117	
107	
100	
111	
109	
117	
113	
113	
114	
102	
125	
108	
108	
100	
127	
110	
106	
109	
97	
112	
114	
132	
114	
110	
98	
98	
102	
107	
109	
106	
98	
118	
101	
97	
115	
110	
91	
118	
119	
118	
98	
109	
100	
119	
103	
96	
113	
104	
107	
115	
110	
113	
109	
101	
113	
99	
113	
121	
116	
110	
85	
118	
113	
114	
105	
101	
118	
135	
120	
104	
98	
115	
98	
112	
101	
94	
122	
101	
98	
121	
100	
112	
87	
110	
111	
98	
103	
107	
112	
107	
111	
101	
118	
98	
90	
100	
119	
86	
110	
118	
109	
91	
78	
95	
107	
91	
101	
121	
106	
116	
95	
103	
103	
103	
97	
109	
120	
96	
87	
101	
97	
110	
110	
118	
105	
105	
103	
122	
92	
106	
95	
89	
97	
98	
105	
100	
107	
86	
101	
91	
112	
96	
99	
94	
114	
98	
108	
114	
115	
100	
90	
104	
94	
94	
98	
104	
90	
125	
104	
115	
107	
102	
94	
94	
92	
93	
95	
113	
110	
96	
97	
108	
117	
91	
106	
96	
97	
115	
103	
77	
100	
87	
98	
113	
102	
115	
102	
93	
98	
100	
98	
80	
85	
103	
86	
99	
91	
115	
89	
97	
94	
103	
121	
101	
90	
97	
118	
90	
127	
108	
90	
103	
97	
106	
100	
108	
89	
87	
89	
79	
93	
118	
99	
101	
84	
104	
96	
98	
80	
107	
92	
93	
95	
88	
124	
104	
87	
101	
110	
99	
107	
93	
101	
87	
101	
96	
97	
110	
83	
97	
96	
86	
98	
102	
99	
90	
97	
112	
92	
101	
101	
86	
123	
91	
102	
80	
100	
92	
99	
106	
99	
102	
111	
95	
93	
100	
101	
99	
90	
105	
99	
119	
97	
102	
97	
81	
106	
105	
103	
97	
96	
90	
106	
107	
114	
87	
80	
90	
99	
107	
104	
96	
97	
87	
116	
106	
86	
104	
122	
97	
78	
100	
93	
106	
107	
115	
95	
95	
89	
91	
123	
110	
96	
103	
89	
96	
79	
98	
102	
84	
96	
85	
95	
96	
102	
85	
83	
101	
107	
122	
103	
99	
97	
96	
93	
90	
107	
83	
84	
105	
78	
107	
103	
91	
103	
90	
87	
91	
108	
90	
91	
90	
103	
77	
79	
99	
109	
99	
88	
92	
104	
92	
89	
109	
108	
94	
98	
105	
78	
99	
84	
93	
105	
96	
99	
94	
90	
108	
101	
91	
102	
115	
89	
85	
87	
102	
92	
94	
105	
89	
99	
81	
90	
88	
99	
98	
100	
97	
91	
93	
104	
92	
90	
87	
79	
104	
84	
81	
92	
94	
76	
91	
95	
106	
81	
96	
111	
84	
90	
116	
85	
88	
101	
92	
101	
88	
92	
96	
94	
96	
108	
85	
89	
69	
87	
107	
84	
73	
99	
102	
88	
101	
82	
111	
84	
104	
90	
91	
92	
74	
103	
82	
81	
105	
84	
96	
104	
82	
103	
79	
105	
94	
88	
93	
81	
96	
98	
91	
99	
102	
84	
107	
95	
106	
86	
78	
116	
106	
95	
84	
91	
100	
104	
92	
96	
93	
95	
90	
93	
82	
102	
89	
91	
94	
113	
84	
107	
105	
97	
101	
81	
95	
94	
98	
100	
85	
92	
90	
88	
114	
110	
103	
89	
114	
81	
93	
107	
92	
81	
95	
93	
83	
77	
83	
97	
94	
104	
91	
105	
84	
86	
97	
87	
74	
111	
79	
85	
107	
97	
89	
90	
90	
77	
113	
86	
102	
87	
86	
95	
92	
94	
108	
86	
69	
105	
82	
97	
89	
96	
89	
99	
86	
98	
92	
77	
82	
98	
108	
96	
96	
77	
84	
75	
103	
97	
75	
72	
93	
111	
84	
94	
79	
89	
81	
76	
92	
102	
70	
99	
76	
99	
92	
99	
83	
92	
97	
78	
98	
76	
86	
84	
77	
78	
72	
105	
92	
108	
123	
80	
95	
95	
89	
110	
82	
99	
77	
75	
89	
114	
91	
110	
85	
87	
99	
92	
79	
89	
81	
78	
103	
109	
90	
89	
84	
78	
90	
81	
96	
84	
73	
112	
98	
76	
87	
83	
115	
94	
96	
92	
68	
101	
91	
93	
102	
88	
98	
97	
90	
95	
77	
99	
84	
84	
89	
88	
95	
88	
98	
81	
117	
84	
86	
94	
82	
97	
114	
91	
92	
81	
88	
96	
85	
97	
90	
96	
101	
86	
96	
86	
80	
81	
91	
101	
63	
116	
90	
65	
87	
88	
104	
82	
96	
84	
88	
81	
84	
71	
102	
81	
75	
88	
73	
83	
98	
99	
86	
95	
103	
103	
93	
85	
100	
82	
79	
84	
79	
95	
94	
84	
89	
75	
85	
88	
79	
88	
80	
77	
89	
75	
78	
83	
84	
89	
77	
72	
85	
90	
78	
88	
81	
73	
93	
75	
77	
79	
82	
79	
89	
82	
75	
61	
88	
80	
84	
84	
86	
80	
83	
78	
83	
84	
93	
104	
84	
81	
99	
89	
91	
89	
96	
74	
93	
109	
82	
90	
83	
101	
82	
83	
76	
76	
84	
88	
79	
82	
87	
88	
80	
101	
89	
89	
91	
97	
100	
77	
96	
80	
77	
86	
99	
82	
88	
74	
97	
86	
77	
87	
73	
92	
79	
93	
93	
81	
76	
92	
83	
87	
85	
81	
66	
91	
87	
82	
80	
90	
100	
96	
98	
86	
105	
66	
76	
92	
77	
82	
80	
85	
93	
84	
78	
95	
79	
85	
72	
103	
93	
72	
74	
89	
73	
98	
98	
83	
81	
68	
78	
69	
67	
90	
106	
92	
81	
93	
67	
86	
81	
69	
83	
80	
79	
69	
95	
69	
67	
97	
111	
87	
89	
78	
85	
97	
86	
90	
89	
79	
85	
102	
88	
70	
92	
82	
93	
79	
86	
89	
83	
83	
101	
87	
107	
87	
77	
85	
77	
76	
99	
63	
72	
93	
76	
85	
91	
68	
83	
84	
88	
74	
87	
75	
83	
86	
85	
71	
99	
82	
73	
95	
75	
90	
76	
80	
81	
73	
95	
78	
78	
88	
72	
83	
65	
88	
85	
72	
86	
80	
74	
88	
100	
68	
92	
72	
101	
86	
85	
75	
86	
62	
87	
88	
86	
111	
90	
85	
78	
76	
82	
84	
85	
89	
63	
101	
72	
83	
79	
86	
93	
100	
92	
72	
92	
83	
80	
67	
78	
88	
79	
82	
80	
79	
71	
79	
75	
80	
88	
82	
69	
96	
87	
94	
74	
76	
86	
82	
94	
73	
85	
76	
69	
82	
94	
111	
81	
89	
80	
81	
73	
87	
76	
81	
105	
79	
85	
97	
72	
88	
86	
72	
87	
81	
84	
78	
74	
70	
77	
81	
80	
86	
71	
75	
81	
84	
96	
67	
68	
85	
90	
85	
81	
71	
69	
86	
84	
82	
86	
84	
82	
77	
82	
81	
93	
80	
90	
66	
81	
72	
90	
82	
80	
79	
91	
80	
73	
90	
75	
69	
82	
77	
90	
89	
91	
78	
74	
77	
77	
95	
75	
69	
79	
84	
75	
82	
76	
80	
65	
74	
77	
78	
92	
82	
81	
91	
81	
77	
73	
86	
87	
72	
75	
91	
93	
90	
87	
86	
83	
75	
89	
81	
69	
95	
85	
96	
77	
75	
98	
86	
77	
82	
78	
80	
86	
77	
91	
77	
72	
59	
86	
85	
81	
76	
93	
82	
87	
77	
85	
72	
86	
79	
67	
69	
86	
77	
74	
82	
85	
67	
73	
82	
90	
80	
85	
84	
74	
74	
80	
81	
68	
74	
65	
74	
75	
85	
68	
87	
72	
73	
93	
79	
96	
65	
74	
72	
72	
73	
76	
67	
69	
80	
86	
75	
80	
98	
70	
79	
73	
72	
79	
76	
74	
85	
66	
61	
69	
96	
72	
59	
77	
65	
90	
75	
75	
