#PicoHarp 300  Histogram Data			05/25/2022 05:30:17 PM
#channels per curve
31250
#display curve no.
0	
#memory block no.
0	
#ns/channel
0.0320	
#counts
0	
7	
5	
2	
3	
3	
3	
2	
4	
2	
6	
3	
0	
4	
5	
3	
5	
3	
3	
3	
3	
5	
0	
5	
1	
6	
2	
1	
2	
5	
2	
5	
6	
5	
3	
2	
5	
4	
2	
2	
2	
3	
1	
2	
2	
1	
5	
5	
1	
3	
1	
5	
1	
3	
2	
1	
0	
5	
7	
2	
3	
1	
3	
3	
2	
5	
2	
4	
2	
3	
2	
3	
1	
1	
4	
1	
3	
1	
5	
1	
2	
3	
1	
4	
3	
2	
3	
2	
2	
2	
4	
4	
3	
4	
1	
1	
4	
3	
3	
3	
3	
2	
3	
1	
3	
3	
6	
3	
1	
3	
6	
1	
0	
3	
3	
3	
3	
1	
1	
3	
1	
4	
1	
1	
6	
4	
3	
2	
5	
4	
3	
3	
3	
4	
2	
1	
0	
3	
1	
3	
1	
4	
1	
0	
1	
0	
2	
4	
3	
3	
3	
8	
3	
3	
0	
4	
2	
5	
1	
6	
1	
3	
2	
5	
5	
2	
3	
2	
3	
8	
3	
2	
3	
1	
0	
1	
3	
3	
2	
2	
6	
2	
1	
4	
1	
2	
3	
2	
2	
2	
2	
3	
3	
2	
4	
1	
1	
2	
0	
5	
3	
5	
3	
0	
6	
1	
7	
2	
3	
5	
2	
5	
1	
1	
3	
5	
5	
3	
3	
1	
1	
4	
2	
2	
2	
2	
5	
5	
3	
5	
3	
1	
4	
3	
0	
1	
3	
1	
4	
5	
3	
5	
5	
3	
0	
4	
6	
4	
3	
6	
4	
3	
1	
7	
4	
1	
4	
6	
2	
7	
3	
5	
3	
3	
4	
4	
4	
3	
4	
3	
5	
6	
7	
1	
3	
6	
4	
2	
0	
3	
3	
1	
3	
2	
1	
3	
2	
5	
5	
2	
4	
4	
2	
4	
2	
2	
5	
5	
3	
3	
2	
2	
4	
0	
4	
6	
3	
0	
4	
4	
3	
3	
3	
0	
2	
2	
5	
3	
5	
2	
1	
3	
1	
3	
4	
2	
3	
1	
6	
3	
2	
3	
4	
2	
5	
2	
2	
4	
3	
1	
4	
2	
4	
3	
3	
4	
1	
4	
3	
2	
4	
3	
3	
5	
3	
3	
4	
3	
4	
3	
3	
4	
5	
3	
2	
5	
3	
1	
2	
7	
3	
6	
3	
5	
5	
2	
3	
4	
3	
2	
4	
2	
5	
3	
5	
5	
2	
1	
2	
4	
2	
1	
3	
5	
3	
1	
5	
0	
1	
4	
5	
3	
1	
3	
5	
3	
5	
3	
1	
3	
6	
4	
4	
2	
4	
6	
1	
4	
2	
3	
2	
4	
2	
7	
2	
1	
3	
4	
4	
2	
3	
1	
2	
1	
4	
2	
8	
1	
2	
2	
2	
4	
9	
4	
1	
3	
5	
4	
5	
3	
4	
1	
8	
2	
4	
4	
1	
2	
2	
3	
2	
0	
6	
4	
2	
3	
3	
5	
3	
5	
3	
3	
2	
4	
2	
1	
4	
2	
2	
3	
6	
4	
3	
1	
2	
5	
1	
3	
3	
4	
0	
1	
2	
1	
3	
1	
4	
0	
2	
2	
6	
1	
2	
0	
3	
6	
5	
3	
2	
3	
6	
2	
3	
6	
4	
1	
1	
3	
9	
2	
0	
4	
5	
4	
2	
4	
1	
4	
3	
3	
5	
4	
5	
2	
3	
2	
3	
1	
5	
7	
0	
2	
4	
3	
5	
3	
1	
2	
2	
3	
2	
3	
4	
3	
3	
5	
7	
1	
4	
2	
0	
3	
1	
5	
2	
4	
8	
1	
3	
4	
2	
3	
2	
4	
5	
5	
4	
5	
4	
1	
2	
1	
4	
4	
3	
0	
2	
2	
5	
1	
2	
3	
2	
4	
4	
1	
4	
3	
3	
2	
8	
4	
5	
5	
2	
6	
4	
3	
0	
5	
2	
2	
1	
4	
1	
3	
4	
1	
2	
1	
2	
2	
1	
7	
1	
3	
3	
2	
0	
3	
3	
4	
2	
6	
7	
2	
1	
1	
2	
4	
2	
1	
3	
5	
1	
4	
4	
5	
1	
3	
6	
2	
3	
8	
4	
2	
1	
2	
3	
0	
4	
1	
4	
1	
4	
2	
4	
1	
4	
2	
3	
5	
1	
1	
7	
3	
1	
3	
0	
2	
3	
5	
1	
0	
1	
1	
5	
2	
2	
7	
4	
3	
1	
1	
3	
3	
3	
1	
4	
2	
2	
1	
3	
4	
4	
2	
2	
7	
3	
2	
0	
7	
4	
3	
1	
4	
0	
3	
7	
2	
3	
2	
6	
4	
8	
6	
9	
2	
3	
4	
8	
9	
4	
2	
2	
1	
3	
4	
3	
4	
3	
3	
1	
3	
0	
2	
2	
6	
2	
2	
2	
2	
4	
3	
1	
1	
5	
7	
1	
2	
3	
3	
5	
1	
3	
4	
4	
4	
3	
2	
4	
4	
2	
3	
1	
3	
7	
3	
9	
6	
4	
2	
5	
3	
4	
1	
2	
3	
3	
7	
1	
4	
3	
3	
7	
4	
4	
4	
4	
2	
2	
4	
3	
1	
2	
3	
4	
1	
3	
3	
5	
2	
1	
3	
4	
3	
0	
4	
2	
6	
4	
3	
1	
3	
4	
5	
2	
1	
3	
0	
5	
1	
7	
0	
2	
0	
3	
5	
4	
4	
1	
4	
0	
2	
0	
1	
2	
4	
3	
2	
1	
7	
3	
2	
4	
2	
3	
2	
3	
5	
3	
4	
3	
5	
3	
2	
3	
4	
5	
3	
2	
1	
4	
1	
3	
3	
1	
4	
4	
5	
2	
6	
2	
2	
2	
3	
4	
4	
4	
3	
3	
5	
4	
4	
3	
2	
3	
6	
2	
3	
3	
4	
4	
4	
3	
1	
7	
3	
3	
3	
4	
5	
4	
1	
3	
5	
5	
1	
1	
2	
1	
3	
3	
2	
1	
2	
5	
3	
4	
1	
3	
2	
0	
1	
2	
3	
3	
0	
4	
3	
4	
5	
5	
2	
0	
4	
5	
0	
2	
2	
6	
4	
3	
5	
1	
3	
8	
3	
3	
4	
6	
6	
4	
5	
9	
7	
10	
12	
7	
10	
5	
18	
11	
24	
15	
20	
30	
26	
24	
55	
43	
60	
72	
67	
79	
101	
123	
126	
168	
163	
198	
227	
229	
260	
295	
386	
402	
452	
449	
457	
502	
587	
582	
658	
693	
682	
706	
805	
795	
773	
794	
851	
858	
900	
881	
916	
918	
911	
911	
917	
946	
882	
969	
981	
969	
969	
901	
976	
968	
970	
905	
967	
944	
934	
1000	
1000	
974	
992	
998	
986	
903	
990	
928	
959	
961	
979	
951	
969	
980	
962	
972	
925	
913	
907	
904	
916	
928	
937	
948	
905	
888	
971	
904	
855	
983	
911	
904	
922	
920	
932	
917	
894	
837	
879	
939	
933	
856	
939	
910	
841	
886	
889	
843	
892	
818	
832	
858	
872	
819	
851	
840	
884	
855	
821	
879	
858	
873	
884	
893	
805	
888	
843	
820	
842	
885	
851	
856	
875	
876	
823	
840	
778	
824	
894	
795	
842	
813	
809	
832	
817	
832	
799	
741	
797	
805	
874	
797	
817	
809	
772	
821	
786	
851	
830	
803	
789	
820	
783	
766	
775	
820	
785	
808	
838	
805	
772	
799	
773	
813	
786	
754	
783	
785	
730	
753	
779	
804	
782	
774	
747	
800	
766	
753	
703	
750	
761	
750	
767	
754	
779	
737	
795	
725	
753	
770	
733	
726	
727	
743	
763	
759	
701	
770	
772	
716	
744	
706	
707	
761	
723	
728	
773	
736	
755	
744	
682	
739	
704	
707	
735	
753	
655	
751	
777	
694	
725	
740	
712	
738	
709	
691	
732	
712	
700	
768	
720	
645	
698	
708	
716	
664	
688	
745	
719	
697	
734	
704	
714	
767	
737	
671	
707	
682	
727	
705	
721	
720	
702	
682	
693	
711	
669	
700	
679	
657	
711	
744	
692	
645	
757	
695	
703	
698	
671	
702	
665	
739	
689	
668	
701	
675	
622	
704	
666	
694	
659	
689	
672	
679	
689	
684	
657	
725	
664	
662	
683	
686	
663	
702	
670	
648	
649	
628	
673	
668	
607	
637	
711	
657	
640	
665	
626	
687	
610	
666	
633	
704	
648	
660	
641	
689	
647	
610	
686	
629	
652	
669	
653	
662	
654	
637	
631	
663	
646	
597	
685	
603	
641	
652	
681	
648	
642	
604	
621	
653	
605	
630	
639	
622	
609	
626	
614	
626	
620	
622	
663	
662	
644	
629	
618	
628	
646	
614	
589	
623	
637	
662	
608	
606	
596	
604	
593	
618	
612	
634	
580	
609	
612	
592	
598	
608	
596	
626	
613	
577	
634	
629	
614	
582	
630	
610	
614	
574	
652	
615	
621	
600	
601	
582	
565	
576	
614	
583	
612	
590	
550	
607	
560	
601	
641	
599	
600	
586	
612	
531	
595	
579	
626	
601	
543	
590	
609	
643	
561	
602	
587	
601	
582	
577	
562	
624	
597	
548	
589	
625	
571	
556	
568	
602	
578	
587	
591	
548	
557	
591	
565	
564	
611	
551	
531	
564	
543	
561	
561	
608	
575	
566	
546	
581	
562	
580	
551	
573	
559	
559	
571	
548	
593	
570	
535	
552	
553	
551	
583	
589	
589	
574	
562	
518	
545	
597	
566	
562	
546	
588	
576	
547	
549	
565	
562	
570	
531	
572	
545	
570	
485	
499	
582	
528	
526	
546	
584	
506	
513	
543	
468	
611	
541	
550	
535	
514	
539	
541	
547	
527	
539	
515	
555	
598	
516	
498	
539	
511	
531	
571	
518	
551	
537	
531	
562	
520	
508	
546	
509	
551	
488	
551	
527	
559	
563	
523	
507	
517	
519	
532	
517	
509	
480	
548	
519	
546	
515	
509	
512	
598	
547	
530	
512	
517	
527	
536	
525	
546	
488	
518	
553	
487	
519	
498	
522	
491	
512	
512	
574	
500	
529	
525	
526	
494	
543	
488	
495	
526	
519	
505	
516	
487	
481	
556	
514	
492	
533	
496	
498	
519	
509	
511	
509	
491	
504	
526	
562	
528	
495	
522	
502	
491	
489	
514	
491	
482	
439	
495	
533	
469	
504	
517	
480	
476	
524	
520	
519	
483	
487	
506	
506	
462	
509	
468	
495	
478	
497	
481	
545	
504	
497	
479	
534	
519	
452	
510	
488	
474	
486	
472	
445	
517	
498	
507	
511	
484	
453	
490	
463	
489	
503	
480	
502	
492	
491	
484	
510	
481	
498	
478	
480	
466	
512	
476	
420	
497	
424	
493	
478	
454	
459	
455	
474	
479	
441	
498	
462	
452	
485	
479	
495	
415	
492	
466	
487	
465	
465	
463	
454	
478	
446	
457	
429	
462	
489	
468	
466	
482	
468	
483	
450	
461	
476	
475	
461	
463	
480	
470	
477	
482	
463	
452	
472	
491	
492	
466	
482	
473	
449	
449	
451	
454	
470	
411	
444	
507	
427	
441	
467	
439	
445	
443	
457	
448	
437	
459	
442	
437	
417	
454	
475	
427	
457	
455	
456	
459	
436	
418	
429	
402	
449	
429	
431	
463	
416	
433	
416	
456	
478	
433	
432	
433	
449	
416	
423	
408	
428	
449	
441	
421	
449	
447	
442	
421	
419	
440	
463	
434	
429	
450	
419	
432	
432	
464	
456	
435	
435	
420	
447	
423	
396	
393	
397	
480	
432	
445	
473	
434	
410	
411	
458	
424	
398	
393	
387	
459	
423	
429	
444	
399	
403	
399	
460	
414	
457	
428	
403	
399	
444	
394	
454	
449	
406	
427	
426	
431	
404	
416	
454	
400	
435	
419	
397	
423	
422	
426	
437	
429	
414	
473	
426	
409	
394	
406	
423	
406	
425	
449	
419	
404	
441	
398	
404	
400	
407	
404	
459	
397	
441	
400	
404	
399	
404	
389	
416	
425	
452	
439	
404	
361	
381	
376	
421	
426	
394	
417	
391	
398	
416	
424	
397	
392	
410	
394	
437	
396	
424	
405	
422	
413	
381	
404	
421	
389	
401	
375	
412	
418	
392	
437	
418	
378	
386	
415	
389	
370	
378	
389	
391	
360	
393	
415	
363	
415	
392	
403	
423	
349	
399	
387	
378	
395	
388	
367	
361	
381	
375	
381	
406	
401	
374	
410	
350	
374	
436	
415	
403	
398	
409	
366	
418	
398	
421	
374	
380	
364	
401	
347	
355	
363	
372	
359	
370	
356	
402	
408	
393	
373	
391	
415	
381	
378	
404	
373	
425	
361	
328	
390	
396	
368	
358	
377	
396	
361	
326	
416	
407	
348	
403	
361	
334	
373	
363	
328	
355	
389	
351	
365	
376	
365	
356	
347	
380	
354	
417	
335	
413	
399	
395	
364	
383	
385	
366	
357	
351	
350	
349	
372	
394	
352	
368	
366	
363	
381	
398	
343	
392	
375	
379	
405	
391	
374	
321	
375	
388	
406	
367	
343	
332	
393	
350	
346	
383	
360	
346	
397	
361	
338	
368	
383	
358	
392	
324	
364	
388	
357	
394	
379	
353	
356	
348	
345	
371	
360	
363	
339	
323	
324	
332	
359	
348	
363	
370	
341	
367	
388	
365	
376	
343	
353	
347	
334	
355	
344	
327	
317	
351	
349	
350	
381	
356	
360	
382	
359	
318	
376	
356	
386	
359	
359	
360	
366	
350	
336	
352	
332	
333	
336	
352	
326	
344	
334	
347	
325	
313	
341	
348	
371	
354	
332	
322	
382	
334	
356	
338	
361	
374	
339	
348	
344	
373	
355	
349	
330	
318	
350	
344	
322	
343	
328	
331	
336	
340	
351	
335	
354	
316	
338	
327	
322	
337	
356	
338	
326	
341	
345	
333	
334	
348	
338	
375	
324	
345	
352	
303	
347	
334	
354	
340	
351	
379	
332	
340	
341	
374	
331	
342	
347	
381	
308	
349	
303	
304	
329	
346	
326	
360	
335	
293	
340	
317	
314	
308	
356	
332	
326	
319	
346	
357	
352	
303	
353	
340	
352	
330	
330	
345	
338	
303	
356	
306	
314	
319	
341	
321	
310	
339	
330	
318	
347	
338	
311	
335	
331	
327	
340	
338	
301	
311	
294	
305	
338	
340	
303	
307	
322	
356	
302	
334	
319	
309	
310	
342	
346	
301	
332	
311	
313	
314	
334	
299	
283	
344	
315	
321	
331	
312	
321	
317	
323	
277	
326	
296	
323	
328	
295	
299	
347	
327	
336	
319	
328	
340	
333	
324	
288	
334	
319	
313	
285	
319	
327	
290	
333	
291	
319	
319	
289	
295	
337	
321	
310	
296	
323	
288	
315	
322	
315	
322	
310	
316	
312	
288	
341	
292	
348	
299	
288	
296	
323	
307	
314	
280	
323	
322	
336	
317	
313	
315	
323	
291	
279	
271	
287	
310	
283	
313	
302	
317	
313	
292	
322	
311	
335	
306	
320	
302	
308	
296	
300	
307	
268	
318	
304	
328	
334	
288	
299	
287	
309	
351	
262	
278	
296	
323	
305	
281	
309	
290	
273	
297	
281	
283	
308	
301	
301	
296	
300	
314	
269	
303	
323	
325	
314	
287	
277	
317	
310	
301	
331	
288	
330	
266	
301	
256	
303	
262	
252	
288	
292	
322	
279	
295	
303	
279	
302	
296	
311	
267	
285	
288	
277	
264	
276	
292	
284	
306	
278	
304	
307	
293	
292	
323	
284	
283	
275	
306	
291	
271	
296	
278	
285	
290	
279	
275	
261	
283	
289	
290	
256	
260	
257	
261	
281	
286	
306	
312	
256	
312	
289	
282	
285	
292	
297	
290	
293	
268	
310	
303	
275	
259	
281	
273	
290	
267	
306	
298	
266	
256	
266	
274	
263	
271	
288	
271	
271	
286	
298	
275	
283	
273	
282	
286	
247	
286	
268	
261	
278	
299	
277	
256	
312	
276	
290	
251	
248	
290	
269	
289	
274	
285	
297	
315	
280	
239	
275	
279	
262	
270	
261	
292	
248	
251	
266	
284	
292	
285	
279	
281	
277	
258	
284	
282	
283	
261	
268	
274	
291	
272	
262	
268	
249	
287	
283	
265	
293	
273	
252	
269	
265	
280	
260	
287	
235	
273	
274	
284	
254	
272	
292	
305	
265	
265	
265	
272	
290	
257	
250	
267	
245	
274	
290	
289	
311	
241	
271	
269	
260	
248	
241	
249	
265	
238	
289	
236	
267	
270	
278	
268	
268	
278	
237	
266	
288	
274	
262	
267	
287	
293	
252	
246	
246	
254	
288	
270	
274	
264	
259	
261	
257	
246	
268	
270	
272	
256	
249	
270	
275	
273	
260	
284	
249	
252	
293	
254	
264	
236	
263	
259	
258	
240	
276	
262	
242	
265	
292	
248	
262	
270	
250	
254	
229	
258	
262	
274	
275	
276	
245	
266	
221	
259	
292	
234	
256	
249	
260	
245	
264	
236	
272	
237	
234	
265	
261	
247	
288	
224	
224	
267	
270	
239	
267	
248	
257	
245	
247	
244	
234	
222	
242	
265	
234	
249	
263	
275	
240	
266	
229	
268	
250	
248	
265	
260	
256	
228	
244	
230	
250	
245	
234	
251	
250	
249	
238	
262	
237	
227	
277	
247	
257	
274	
261	
243	
236	
233	
249	
240	
248	
245	
255	
227	
255	
240	
264	
249	
246	
240	
255	
261	
232	
241	
241	
248	
252	
241	
248	
240	
255	
232	
238	
233	
233	
257	
261	
249	
247	
245	
213	
264	
252	
251	
256	
260	
241	
253	
219	
237	
241	
238	
248	
256	
248	
225	
220	
251	
228	
232	
244	
247	
216	
253	
229	
218	
256	
242	
214	
197	
229	
242	
264	
247	
234	
254	
219	
273	
249	
270	
231	
252	
266	
228	
226	
228	
246	
263	
232	
210	
239	
231	
210	
229	
232	
260	
238	
255	
232	
237	
248	
214	
242	
256	
250	
207	
211	
261	
234	
222	
241	
259	
245	
252	
239	
217	
237	
259	
232	
234	
234	
249	
206	
221	
233	
226	
254	
239	
230	
235	
224	
227	
227	
207	
256	
204	
240	
231	
209	
251	
216	
215	
234	
238	
242	
245	
222	
220	
257	
237	
219	
251	
225	
234	
276	
216	
244	
224	
218	
225	
204	
199	
248	
205	
226	
226	
229	
205	
216	
215	
215	
235	
224	
222	
241	
237	
227	
221	
239	
248	
252	
237	
238	
217	
230	
252	
242	
247	
210	
224	
202	
225	
221	
246	
237	
236	
218	
231	
207	
216	
219	
236	
247	
234	
206	
211	
242	
233	
185	
235	
205	
234	
206	
215	
229	
219	
200	
240	
196	
231	
200	
231	
214	
225	
222	
230	
227	
198	
241	
191	
189	
229	
207	
220	
219	
221	
208	
222	
238	
208	
210	
230	
210	
229	
218	
203	
217	
237	
231	
212	
233	
237	
218	
197	
199	
185	
205	
202	
201	
216	
208	
226	
224	
237	
216	
200	
204	
212	
241	
198	
216	
204	
225	
215	
231	
217	
210	
234	
221	
199	
206	
193	
199	
216	
222	
238	
236	
203	
203	
227	
202	
219	
212	
172	
236	
229	
207	
247	
207	
223	
200	
199	
217	
208	
196	
229	
203	
191	
212	
215	
227	
226	
185	
220	
221	
204	
210	
213	
192	
216	
196	
222	
202	
215	
225	
205	
198	
211	
209	
236	
194	
220	
218	
190	
210	
193	
231	
205	
192	
219	
204	
204	
212	
212	
193	
208	
231	
217	
222	
224	
227	
235	
217	
208	
203	
212	
182	
205	
198	
193	
219	
207	
198	
213	
200	
218	
189	
194	
214	
197	
194	
208	
188	
215	
203	
227	
200	
228	
210	
212	
210	
210	
193	
198	
222	
205	
209	
219	
182	
195	
197	
218	
193	
193	
174	
204	
223	
182	
207	
194	
201	
210	
202	
189	
212	
195	
230	
225	
208	
207	
201	
191	
220	
209	
204	
231	
205	
202	
186	
203	
207	
213	
204	
182	
185	
176	
219	
181	
181	
202	
189	
192	
209	
208	
196	
204	
216	
193	
185	
225	
207	
205	
191	
189	
165	
199	
209	
202	
195	
184	
227	
197	
179	
201	
201	
190	
190	
183	
229	
195	
182	
177	
182	
210	
212	
189	
185	
200	
204	
199	
206	
194	
197	
192	
177	
193	
208	
211	
180	
199	
192	
197	
203	
180	
191	
192	
224	
180	
206	
182	
204	
209	
203	
198	
191	
207	
174	
193	
226	
195	
204	
188	
173	
187	
196	
179	
194	
203	
160	
190	
182	
184	
191	
203	
191	
189	
191	
186	
173	
183	
205	
197	
176	
217	
184	
212	
181	
206	
183	
237	
196	
204	
173	
195	
199	
186	
186	
209	
186	
185	
167	
167	
189	
170	
198	
189	
198	
210	
168	
172	
221	
175	
182	
190	
200	
202	
173	
191	
197	
172	
199	
213	
175	
198	
168	
220	
189	
166	
187	
187	
173	
175	
184	
163	
191	
181	
215	
199	
180	
187	
218	
195	
178	
204	
160	
192	
195	
188	
190	
185	
195	
165	
190	
171	
201	
187	
208	
184	
179	
204	
155	
207	
172	
173	
191	
163	
172	
161	
188	
178	
194	
197	
174	
209	
180	
167	
191	
179	
175	
191	
172	
200	
184	
161	
161	
187	
182	
176	
171	
169	
176	
180	
190	
172	
183	
195	
174	
180	
217	
182	
189	
175	
202	
167	
167	
177	
188	
173	
184	
165	
179	
179	
155	
179	
178	
186	
176	
171	
175	
174	
189	
176	
195	
175	
201	
175	
209	
175	
164	
169	
174	
172	
172	
178	
180	
176	
181	
184	
190	
174	
194	
172	
185	
183	
170	
165	
193	
182	
182	
160	
177	
209	
200	
190	
156	
194	
191	
195	
164	
168	
150	
205	
198	
171	
174	
160	
175	
175	
179	
164	
187	
162	
162	
175	
179	
188	
184	
187	
188	
136	
179	
186	
176	
182	
191	
184	
186	
164	
148	
173	
180	
169	
184	
182	
146	
150	
174	
176	
158	
175	
179	
164	
149	
218	
167	
216	
190	
158	
183	
160	
175	
171	
168	
192	
170	
177	
180	
160	
183	
165	
187	
192	
168	
180	
163	
164	
172	
169	
174	
194	
155	
187	
181	
172	
150	
176	
165	
157	
185	
174	
160	
193	
182	
169	
172	
157	
150	
183	
162	
169	
174	
178	
181	
153	
174	
167	
166	
175	
161	
149	
165	
167	
174	
164	
184	
146	
161	
170	
180	
162	
171	
186	
164	
169	
145	
157	
167	
192	
169	
149	
157	
158	
164	
166	
171	
143	
155	
163	
153	
152	
130	
171	
161	
175	
179	
157	
201	
150	
205	
157	
167	
153	
176	
143	
141	
186	
166	
176	
183	
180	
186	
148	
152	
153	
183	
158	
187	
143	
151	
165	
180	
146	
146	
170	
169	
159	
166	
170	
143	
149	
147	
183	
173	
165	
176	
161	
156	
162	
152	
161	
146	
153	
140	
163	
151	
155	
186	
158	
163	
161	
185	
148	
139	
161	
165	
141	
154	
169	
187	
163	
151	
172	
160	
166	
146	
148	
179	
169	
155	
158	
166	
148	
169	
142	
144	
140	
186	
173	
172	
159	
161	
167	
146	
155	
130	
141	
155	
164	
187	
153	
166	
154	
153	
163	
143	
138	
165	
144	
162	
148	
167	
192	
160	
163	
157	
163	
158	
136	
153	
154	
158	
132	
167	
144	
147	
160	
168	
155	
166	
165	
136	
179	
155	
143	
144	
157	
157	
156	
168	
137	
167	
159	
172	
182	
167	
161	
150	
155	
160	
148	
186	
165	
164	
159	
143	
162	
157	
164	
145	
152	
167	
142	
145	
143	
155	
140	
150	
150	
176	
166	
162	
168	
168	
147	
140	
154	
149	
159	
141	
156	
178	
169	
152	
158	
157	
141	
164	
125	
169	
143	
146	
158	
141	
161	
153	
154	
135	
140	
166	
149	
127	
143	
132	
152	
157	
162	
149	
130	
136	
144	
144	
145	
156	
162	
143	
147	
156	
163	
130	
156	
154	
143	
143	
123	
145	
131	
151	
157	
179	
155	
132	
143	
157	
145	
154	
166	
149	
139	
149	
151	
123	
168	
145	
142	
152	
165	
154	
125	
163	
148	
132	
148	
157	
145	
174	
134	
156	
145	
128	
144	
147	
160	
146	
140	
147	
167	
153	
153	
129	
137	
151	
136	
163	
143	
138	
159	
136	
162	
151	
140	
136	
123	
139	
141	
141	
129	
140	
149	
138	
137	
142	
145	
134	
158	
146	
132	
146	
130	
147	
137	
137	
156	
141	
144	
136	
145	
147	
156	
154	
143	
133	
138	
148	
164	
160	
128	
113	
147	
152	
150	
156	
142	
154	
156	
155	
139	
132	
158	
153	
141	
154	
157	
137	
152	
160	
146	
136	
141	
126	
132	
161	
154	
145	
147	
136	
141	
149	
117	
162	
133	
130	
134	
124	
140	
142	
123	
144	
146	
142	
140	
143	
130	
154	
142	
142	
157	
140	
160	
139	
145	
145	
144	
148	
138	
126	
161	
142	
138	
132	
148	
149	
133	
137	
146	
131	
129	
155	
140	
129	
172	
110	
161	
139	
131	
149	
167	
160	
123	
132	
141	
124	
140	
133	
137	
135	
143	
150	
135	
126	
155	
154	
134	
143	
130	
143	
156	
142	
136	
153	
147	
112	
139	
140	
139	
134	
144	
133	
150	
154	
140	
138	
118	
127	
147	
153	
137	
143	
146	
127	
161	
147	
143	
130	
152	
125	
144	
129	
135	
144	
142	
139	
130	
132	
132	
136	
118	
124	
122	
145	
138	
148	
131	
125	
127	
143	
137	
122	
127	
134	
133	
132	
120	
121	
132	
142	
135	
158	
151	
120	
156	
136	
134	
142	
150	
125	
126	
119	
117	
111	
115	
143	
134	
116	
153	
129	
124	
157	
132	
148	
136	
140	
137	
131	
140	
101	
141	
142	
130	
132	
133	
155	
157	
133	
135	
125	
130	
132	
133	
127	
125	
156	
138	
128	
108	
124	
123	
143	
145	
124	
128	
125	
129	
138	
126	
125	
145	
137	
132	
132	
122	
152	
125	
157	
133	
126	
129	
142	
121	
132	
139	
132	
134	
161	
125	
116	
151	
114	
134	
144	
139	
136	
135	
131	
123	
132	
124	
133	
130	
111	
119	
128	
112	
119	
134	
152	
124	
144	
137	
123	
109	
133	
148	
125	
109	
123	
136	
130	
140	
118	
127	
113	
135	
119	
132	
131	
122	
125	
140	
129	
130	
116	
129	
120	
139	
131	
139	
140	
121	
118	
124	
133	
123	
118	
141	
121	
149	
135	
137	
116	
159	
129	
126	
115	
140	
126	
130	
126	
115	
138	
119	
119	
125	
136	
111	
134	
115	
132	
116	
114	
134	
115	
131	
133	
110	
124	
137	
119	
133	
116	
131	
132	
129	
130	
109	
127	
133	
109	
118	
147	
139	
122	
118	
131	
115	
111	
135	
148	
145	
116	
118	
128	
158	
128	
130	
128	
125	
111	
130	
149	
125	
135	
115	
102	
118	
124	
119	
108	
122	
120	
119	
106	
120	
128	
128	
121	
138	
125	
152	
138	
129	
113	
137	
131	
124	
123	
128	
138	
122	
122	
127	
137	
124	
91	
128	
126	
118	
112	
129	
129	
111	
114	
111	
100	
120	
117	
125	
113	
126	
114	
118	
117	
120	
122	
131	
108	
128	
134	
119	
119	
141	
119	
109	
137	
122	
120	
134	
123	
128	
111	
129	
110	
121	
116	
117	
141	
137	
130	
126	
124	
109	
124	
105	
139	
123	
101	
113	
120	
103	
110	
124	
118	
113	
120	
133	
128	
119	
121	
117	
105	
99	
98	
105	
113	
100	
118	
95	
113	
113	
125	
148	
122	
120	
112	
128	
134	
124	
135	
124	
134	
122	
103	
120	
111	
127	
128	
127	
116	
140	
96	
113	
99	
131	
109	
128	
129	
115	
116	
106	
125	
111	
127	
110	
132	
144	
110	
108	
128	
104	
118	
119	
131	
113	
114	
120	
120	
114	
107	
105	
122	
128	
124	
105	
131	
121	
100	
101	
106	
114	
118	
116	
121	
127	
103	
120	
132	
116	
121	
124	
116	
135	
124	
125	
103	
121	
94	
101	
98	
113	
105	
113	
118	
114	
105	
121	
122	
139	
124	
128	
120	
117	
115	
106	
114	
116	
108	
119	
111	
105	
100	
116	
110	
96	
118	
97	
116	
125	
122	
100	
107	
105	
115	
133	
115	
108	
122	
104	
120	
104	
109	
127	
116	
101	
107	
99	
121	
112	
109	
100	
114	
127	
110	
118	
131	
113	
124	
129	
129	
118	
113	
95	
118	
107	
115	
118	
116	
116	
128	
107	
105	
113	
125	
132	
83	
130	
116	
109	
108	
104	
112	
107	
110	
134	
106	
126	
99	
100	
114	
122	
125	
112	
111	
116	
97	
139	
113	
109	
106	
91	
114	
110	
109	
121	
133	
113	
108	
105	
121	
105	
110	
104	
93	
95	
114	
102	
109	
97	
114	
135	
129	
98	
107	
98	
112	
104	
116	
100	
93	
95	
116	
108	
109	
125	
125	
105	
110	
91	
97	
111	
118	
94	
105	
111	
106	
117	
106	
97	
98	
104	
120	
116	
113	
114	
122	
89	
98	
101	
127	
99	
119	
105	
106	
110	
131	
107	
119	
108	
95	
104	
111	
125	
98	
117	
94	
94	
112	
112	
101	
107	
116	
126	
119	
98	
106	
110	
111	
105	
112	
124	
121	
112	
119	
117	
95	
95	
108	
116	
101	
99	
93	
143	
110	
90	
105	
107	
119	
110	
115	
113	
125	
110	
93	
111	
94	
99	
97	
109	
98	
98	
107	
108	
90	
87	
102	
115	
103	
121	
113	
100	
119	
124	
109	
109	
107	
112	
132	
101	
107	
108	
98	
113	
102	
103	
96	
93	
104	
98	
119	
108	
115	
108	
106	
107	
109	
61	
109	
120	
114	
97	
113	
111	
103	
98	
101	
124	
118	
119	
104	
110	
110	
110	
124	
91	
90	
101	
90	
90	
105	
97	
116	
106	
107	
99	
114	
97	
106	
100	
85	
113	
95	
114	
95	
106	
97	
113	
114	
97	
99	
106	
95	
96	
101	
117	
102	
103	
114	
112	
98	
88	
115	
91	
113	
94	
113	
90	
108	
84	
102	
111	
102	
103	
123	
113	
106	
113	
106	
103	
120	
89	
94	
117	
100	
106	
114	
125	
108	
124	
94	
114	
103	
87	
123	
104	
113	
107	
91	
93	
102	
109	
99	
99	
104	
100	
94	
88	
106	
90	
100	
106	
119	
111	
94	
105	
97	
87	
97	
99	
116	
100	
100	
107	
91	
115	
94	
102	
94	
119	
103	
114	
133	
115	
103	
94	
106	
100	
93	
98	
94	
99	
88	
116	
114	
121	
92	
108	
99	
101	
88	
76	
103	
94	
101	
93	
132	
82	
117	
90	
87	
114	
101	
93	
93	
94	
91	
98	
105	
86	
116	
107	
104	
93	
100	
117	
90	
93	
107	
91	
114	
96	
95	
108	
97	
91	
96	
108	
101	
98	
97	
109	
91	
114	
77	
120	
103	
83	
99	
107	
112	
96	
85	
101	
96	
97	
99	
91	
95	
100	
99	
97	
114	
104	
101	
98	
98	
102	
94	
104	
105	
100	
100	
105	
103	
98	
103	
91	
122	
85	
132	
98	
96	
101	
106	
89	
111	
105	
112	
96	
107	
97	
115	
94	
89	
83	
91	
96	
107	
104	
82	
102	
110	
94	
91	
109	
85	
99	
96	
96	
99	
98	
97	
104	
106	
96	
99	
85	
83	
99	
100	
92	
85	
90	
96	
97	
107	
79	
93	
104	
101	
76	
100	
87	
96	
82	
108	
113	
89	
106	
94	
110	
92	
90	
101	
102	
90	
92	
111	
92	
95	
109	
94	
85	
105	
87	
111	
91	
90	
91	
93	
88	
94	
105	
95	
79	
97	
109	
111	
96	
107	
81	
100	
98	
89	
86	
99	
94	
103	
94	
112	
97	
103	
95	
92	
94	
93	
94	
91	
102	
92	
94	
93	
98	
96	
84	
96	
80	
84	
106	
100	
99	
123	
91	
91	
116	
98	
98	
90	
81	
100	
89	
105	
119	
85	
85	
96	
102	
78	
73	
113	
91	
87	
109	
103	
101	
89	
80	
103	
106	
97	
90	
96	
98	
87	
79	
93	
104	
92	
86	
89	
90	
90	
103	
111	
77	
97	
102	
89	
107	
100	
102	
85	
108	
96	
90	
91	
87	
99	
91	
109	
108	
81	
74	
89	
99	
83	
94	
93	
89	
96	
86	
63	
98	
81	
71	
96	
93	
101	
84	
87	
94	
89	
93	
84	
93	
107	
99	
77	
91	
82	
101	
83	
105	
86	
88	
106	
96	
85	
81	
76	
90	
103	
94	
70	
98	
100	
87	
93	
99	
91	
98	
91	
86	
87	
74	
84	
89	
90	
82	
98	
90	
93	
92	
100	
86	
91	
68	
89	
102	
84	
87	
85	
83	
89	
101	
97	
85	
87	
85	
75	
101	
93	
100	
89	
89	
87	
96	
87	
106	
74	
88	
78	
79	
96	
80	
88	
81	
74	
106	
88	
96	
104	
73	
78	
92	
89	
83	
93	
95	
77	
75	
90	
83	
95	
83	
69	
95	
112	
76	
107	
91	
98	
93	
76	
81	
82	
91	
101	
95	
90	
73	
86	
83	
87	
87	
101	
88	
84	
84	
103	
81	
80	
75	
97	
81	
91	
102	
71	
93	
88	
86	
85	
75	
103	
93	
89	
90	
92	
77	
78	
83	
85	
100	
87	
94	
84	
84	
97	
94	
92	
106	
90	
81	
89	
91	
76	
84	
93	
97	
77	
118	
76	
100	
111	
74	
82	
84	
100	
69	
89	
74	
84	
90	
85	
82	
85	
86	
77	
102	
83	
78	
88	
87	
79	
80	
71	
95	
92	
73	
85	
82	
95	
83	
78	
70	
83	
85	
85	
80	
79	
97	
83	
90	
83	
76	
94	
84	
89	
96	
81	
76	
84	
81	
61	
81	
89	
80	
97	
84	
100	
98	
84	
86	
94	
64	
80	
96	
97	
102	
66	
76	
104	
82	
86	
95	
79	
88	
91	
93	
94	
72	
105	
74	
68	
75	
82	
88	
78	
93	
81	
84	
92	
81	
75	
80	
94	
81	
81	
71	
68	
93	
82	
72	
93	
86	
101	
82	
90	
85	
73	
96	
102	
95	
78	
77	
77	
73	
88	
74	
84	
72	
84	
78	
85	
103	
91	
75	
86	
80	
77	
80	
79	
99	
80	
98	
85	
83	
66	
84	
84	
80	
84	
86	
78	
56	
57	
71	
92	
89	
74	
77	
88	
63	
89	
95	
95	
78	
85	
85	
87	
78	
78	
78	
78	
96	
85	
81	
87	
92	
80	
93	
79	
81	
88	
86	
84	
90	
80	
103	
79	
83	
90	
86	
90	
84	
80	
85	
88	
91	
90	
69	
98	
71	
82	
93	
79	
77	
79	
78	
83	
76	
75	
80	
94	
77	
73	
89	
91	
79	
73	
78	
79	
90	
83	
103	
72	
91	
79	
73	
74	
70	
69	
72	
83	
76	
71	
88	
87	
59	
88	
75	
85	
70	
72	
82	
85	
71	
81	
82	
84	
69	
89	
63	
87	
80	
85	
89	
77	
83	
84	
73	
74	
84	
71	
69	
91	
92	
78	
89	
78	
81	
78	
91	
101	
74	
82	
83	
90	
77	
75	
81	
82	
94	
62	
75	
75	
68	
72	
56	
63	
72	
78	
81	
86	
69	
70	
86	
87	
88	
87	
89	
79	
87	
70	
73	
90	
72	
77	
86	
59	
77	
76	
77	
67	
82	
67	
79	
85	
68	
62	
74	
90	
71	
80	
81	
66	
81	
75	
75	
85	
77	
98	
96	
73	
84	
63	
66	
68	
79	
91	
74	
82	
66	
72	
79	
89	
74	
75	
65	
66	
82	
62	
81	
67	
72	
63	
71	
81	
74	
81	
70	
84	
73	
65	
82	
78	
78	
82	
77	
75	
67	
68	
92	
62	
77	
70	
80	
101	
72	
81	
79	
77	
68	
79	
76	
76	
72	
71	
72	
90	
61	
66	
87	
81	
81	
83	
72	
75	
76	
68	
78	
78	
67	
74	
58	
72	
81	
64	
65	
63	
59	
67	
66	
85	
78	
72	
73	
70	
71	
59	
69	
75	
88	
86	
63	
82	
75	
68	
89	
85	
71	
62	
53	
64	
78	
68	
71	
79	
68	
74	
62	
60	
79	
72	
66	
81	
76	
67	
87	
79	
89	
72	
67	
77	
80	
71	
69	
64	
69	
80	
60	
76	
82	
70	
60	
88	
80	
73	
61	
78	
80	
75	
66	
71	
80	
88	
76	
64	
82	
66	
74	
79	
64	
56	
72	
72	
64	
69	
76	
73	
82	
61	
77	
85	
52	
90	
80	
72	
69	
75	
83	
72	
78	
64	
75	
66	
74	
81	
62	
85	
69	
72	
83	
72	
64	
87	
83	
58	
70	
66	
67	
86	
68	
79	
79	
82	
61	
88	
76	
60	
68	
88	
71	
80	
59	
69	
76	
68	
72	
68	
67	
81	
78	
66	
57	
70	
56	
87	
81	
69	
74	
67	
60	
85	
67	
72	
64	
63	
82	
74	
78	
66	
57	
81	
75	
82	
82	
66	
64	
75	
78	
76	
70	
70	
82	
91	
67	
69	
77	
85	
82	
74	
69	
87	
70	
82	
78	
59	
73	
66	
48	
53	
81	
61	
96	
64	
70	
66	
63	
62	
68	
65	
70	
73	
70	
76	
77	
73	
67	
76	
68	
71	
75	
62	
61	
79	
95	
72	
61	
69	
70	
69	
62	
68	
60	
80	
71	
84	
66	
66	
67	
66	
79	
67	
63	
66	
76	
76	
66	
69	
83	
68	
85	
76	
80	
59	
74	
57	
58	
87	
69	
61	
69	
62	
68	
73	
79	
73	
71	
94	
73	
66	
75	
74	
74	
87	
84	
72	
58	
63	
86	
73	
80	
68	
70	
59	
61	
61	
80	
68	
66	
67	
55	
75	
71	
56	
73	
72	
75	
77	
62	
80	
73	
75	
83	
73	
72	
71	
70	
58	
75	
66	
72	
62	
74	
76	
52	
72	
60	
66	
71	
70	
89	
79	
71	
68	
77	
73	
84	
82	
66	
65	
70	
58	
55	
70	
59	
53	
57	
68	
83	
61	
87	
64	
75	
69	
76	
61	
83	
65	
71	
74	
68	
65	
80	
68	
56	
75	
70	
82	
56	
70	
63	
52	
71	
67	
64	
65	
63	
72	
76	
57	
61	
55	
77	
80	
61	
75	
68	
64	
69	
87	
59	
83	
71	
68	
53	
67	
73	
78	
55	
70	
78	
72	
68	
72	
64	
61	
74	
73	
80	
71	
75	
63	
77	
66	
68	
58	
65	
80	
59	
76	
64	
59	
69	
61	
75	
71	
69	
62	
68	
71	
69	
52	
74	
74	
60	
71	
65	
62	
71	
69	
59	
69	
63	
67	
58	
58	
64	
70	
83	
52	
65	
70	
72	
59	
75	
69	
74	
52	
69	
69	
64	
71	
68	
71	
58	
68	
60	
76	
59	
61	
68	
58	
69	
87	
72	
60	
64	
70	
63	
57	
61	
68	
67	
61	
71	
72	
63	
71	
75	
56	
62	
68	
65	
73	
64	
67	
54	
71	
73	
71	
77	
83	
71	
65	
60	
77	
63	
54	
63	
64	
68	
58	
55	
69	
69	
58	
51	
79	
59	
57	
73	
60	
68	
56	
67	
64	
75	
77	
70	
71	
75	
61	
84	
67	
56	
55	
58	
67	
75	
72	
63	
65	
61	
59	
66	
68	
77	
54	
72	
75	
60	
58	
81	
57	
69	
71	
63	
52	
62	
66	
67	
88	
72	
72	
60	
82	
62	
69	
65	
54	
72	
56	
81	
67	
43	
66	
62	
68	
62	
58	
63	
60	
75	
61	
67	
58	
53	
70	
57	
73	
58	
65	
64	
94	
58	
77	
70	
72	
65	
71	
56	
65	
76	
66	
54	
65	
53	
45	
80	
57	
67	
72	
53	
65	
61	
53	
61	
66	
65	
60	
72	
67	
48	
74	
62	
73	
61	
75	
50	
50	
58	
58	
71	
58	
48	
70	
60	
69	
67	
59	
72	
59	
64	
67	
62	
74	
57	
68	
54	
63	
64	
77	
64	
63	
71	
61	
59	
69	
67	
65	
63	
61	
60	
54	
62	
65	
56	
67	
73	
59	
66	
57	
57	
63	
72	
65	
62	
57	
74	
49	
55	
54	
57	
61	
53	
59	
50	
45	
70	
66	
71	
71	
52	
53	
69	
56	
55	
63	
68	
53	
63	
75	
52	
57	
75	
56	
65	
55	
69	
62	
62	
69	
56	
64	
61	
57	
66	
60	
58	
67	
65	
70	
66	
71	
53	
59	
58	
59	
71	
67	
73	
67	
53	
70	
62	
70	
70	
71	
71	
57	
59	
57	
66	
46	
56	
59	
63	
62	
56	
47	
55	
69	
60	
61	
72	
66	
63	
69	
54	
48	
51	
49	
56	
55	
61	
57	
48	
50	
54	
62	
69	
69	
74	
68	
54	
56	
71	
57	
70	
65	
52	
56	
66	
57	
59	
64	
66	
55	
61	
53	
52	
49	
68	
65	
60	
44	
64	
59	
60	
61	
54	
55	
65	
53	
49	
56	
48	
71	
64	
60	
69	
51	
53	
54	
62	
58	
73	
52	
56	
59	
72	
57	
63	
48	
68	
67	
61	
60	
62	
60	
59	
52	
62	
70	
56	
65	
73	
72	
49	
56	
60	
57	
65	
55	
79	
53	
45	
53	
55	
74	
52	
56	
57	
61	
56	
60	
52	
61	
71	
60	
59	
61	
65	
49	
63	
70	
49	
80	
55	
51	
65	
51	
50	
70	
61	
64	
52	
55	
62	
57	
70	
58	
60	
63	
48	
48	
60	
65	
61	
73	
61	
66	
63	
54	
59	
65	
69	
49	
61	
51	
65	
67	
60	
68	
60	
62	
62	
60	
49	
48	
64	
45	
48	
56	
59	
60	
56	
56	
62	
55	
39	
52	
59	
55	
60	
62	
63	
71	
61	
56	
51	
47	
73	
52	
57	
63	
57	
76	
75	
65	
61	
73	
58	
60	
67	
84	
48	
46	
70	
48	
61	
66	
64	
52	
52	
57	
49	
49	
57	
54	
51	
47	
57	
55	
68	
65	
57	
46	
50	
61	
53	
63	
38	
53	
58	
57	
51	
61	
50	
54	
48	
53	
59	
55	
62	
51	
57	
67	
57	
55	
45	
57	
67	
58	
67	
48	
51	
59	
55	
60	
63	
56	
64	
62	
65	
72	
48	
54	
58	
61	
50	
49	
69	
64	
56	
50	
58	
67	
55	
55	
56	
47	
58	
60	
60	
56	
57	
84	
53	
56	
58	
55	
69	
60	
59	
47	
60	
61	
62	
48	
53	
55	
66	
60	
62	
58	
58	
49	
52	
45	
59	
47	
53	
61	
58	
67	
48	
48	
47	
63	
51	
56	
60	
66	
52	
43	
64	
60	
44	
62	
56	
62	
54	
54	
63	
65	
44	
58	
47	
51	
53	
55	
62	
63	
48	
46	
57	
57	
56	
67	
64	
47	
60	
64	
59	
48	
54	
46	
66	
57	
59	
55	
66	
56	
52	
42	
52	
52	
45	
52	
67	
49	
64	
52	
41	
51	
58	
55	
38	
46	
38	
41	
61	
67	
65	
59	
55	
44	
49	
59	
53	
49	
46	
49	
62	
48	
47	
52	
62	
66	
54	
63	
54	
53	
59	
65	
60	
41	
45	
41	
46	
46	
50	
52	
57	
61	
46	
64	
47	
60	
63	
48	
50	
51	
51	
45	
60	
56	
49	
51	
62	
51	
50	
58	
51	
50	
39	
45	
61	
45	
