#PicoHarp 300  Histogram Data			05/25/2022 05:45:41 PM
#channels per curve
31250
#display curve no.
0	
#memory block no.
0	
#ns/channel
0.0320	
#counts
4	
8	
2	
6	
4	
4	
1	
2	
13	
9	
9	
4	
12	
5	
1	
3	
5	
9	
0	
6	
4	
4	
3	
7	
9	
4	
3	
6	
12	
8	
5	
11	
3	
6	
7	
9	
7	
5	
5	
6	
8	
6	
8	
6	
5	
5	
5	
5	
5	
6	
6	
5	
7	
2	
7	
3	
4	
12	
4	
4	
6	
2	
2	
5	
9	
6	
5	
8	
3	
7	
6	
4	
6	
7	
11	
14	
4	
8	
4	
4	
8	
4	
6	
3	
5	
6	
5	
5	
5	
7	
8	
6	
3	
6	
9	
6	
8	
4	
4	
4	
5	
5	
7	
6	
5	
4	
5	
6	
10	
2	
3	
2	
7	
11	
4	
3	
6	
9	
9	
7	
4	
6	
5	
4	
5	
3	
9	
8	
5	
12	
5	
10	
7	
3	
4	
12	
5	
5	
4	
2	
6	
4	
7	
9	
7	
7	
7	
7	
7	
10	
2	
3	
6	
3	
7	
9	
8	
4	
9	
11	
5	
7	
5	
5	
2	
4	
8	
8	
4	
6	
8	
5	
4	
6	
10	
4	
3	
2	
6	
3	
6	
5	
4	
6	
11	
6	
2	
6	
5	
4	
2	
7	
3	
7	
3	
4	
11	
7	
5	
9	
6	
7	
6	
6	
9	
3	
5	
7	
2	
3	
7	
9	
6	
9	
10	
5	
6	
4	
12	
8	
6	
14	
6	
5	
6	
4	
3	
1	
4	
7	
3	
7	
5	
11	
4	
4	
9	
10	
4	
7	
3	
4	
5	
7	
3	
9	
10	
3	
9	
5	
11	
7	
4	
4	
9	
5	
4	
5	
8	
5	
7	
8	
9	
8	
10	
4	
6	
3	
7	
7	
5	
2	
7	
10	
2	
5	
8	
8	
3	
4	
3	
4	
8	
3	
5	
5	
5	
6	
11	
4	
6	
5	
5	
6	
7	
6	
4	
8	
8	
8	
1	
8	
2	
8	
2	
10	
4	
8	
9	
6	
7	
5	
5	
7	
3	
2	
7	
10	
3	
9	
5	
7	
6	
8	
7	
10	
8	
4	
3	
2	
7	
7	
4	
4	
13	
6	
13	
6	
6	
7	
3	
5	
6	
4	
10	
6	
2	
3	
7	
3	
9	
6	
7	
5	
6	
11	
5	
4	
10	
11	
7	
6	
6	
4	
3	
5	
7	
5	
7	
3	
2	
4	
3	
5	
7	
7	
3	
7	
9	
2	
3	
4	
6	
5	
4	
5	
11	
7	
8	
6	
4	
9	
6	
4	
8	
9	
10	
3	
6	
7	
6	
8	
12	
6	
3	
4	
4	
3	
9	
6	
8	
8	
3	
9	
10	
4	
5	
10	
4	
7	
8	
6	
7	
8	
6	
10	
6	
7	
6	
5	
5	
5	
8	
6	
6	
2	
4	
9	
6	
6	
4	
9	
3	
5	
6	
5	
8	
8	
8	
7	
7	
8	
5	
9	
6	
5	
5	
3	
7	
3	
5	
1	
4	
8	
9	
3	
7	
9	
3	
11	
7	
6	
4	
7	
2	
6	
8	
10	
2	
8	
2	
0	
5	
4	
9	
4	
5	
6	
4	
7	
9	
6	
7	
4	
7	
5	
6	
2	
7	
3	
6	
4	
5	
12	
9	
8	
8	
7	
2	
5	
6	
6	
4	
4	
9	
4	
4	
5	
4	
7	
6	
4	
7	
4	
10	
4	
7	
6	
6	
4	
5	
6	
7	
8	
3	
4	
17	
7	
8	
9	
6	
4	
2	
5	
5	
7	
2	
2	
5	
3	
6	
5	
10	
15	
4	
3	
4	
10	
2	
8	
8	
7	
12	
4	
8	
4	
6	
7	
3	
3	
6	
7	
5	
8	
7	
2	
10	
10	
4	
7	
6	
3	
3	
4	
5	
9	
7	
6	
5	
8	
5	
4	
8	
5	
5	
2	
8	
4	
4	
5	
6	
1	
11	
3	
6	
6	
6	
5	
6	
5	
5	
6	
10	
7	
2	
5	
9	
6	
3	
3	
4	
7	
6	
9	
8	
11	
9	
6	
4	
4	
4	
5	
4	
4	
7	
2	
4	
4	
5	
2	
4	
8	
0	
5	
5	
7	
5	
6	
8	
7	
7	
6	
7	
9	
3	
2	
1	
8	
9	
3	
9	
3	
3	
3	
3	
7	
5	
6	
2	
3	
5	
4	
9	
1	
7	
6	
13	
7	
7	
6	
9	
13	
3	
3	
3	
2	
4	
5	
6	
7	
6	
6	
8	
6	
5	
13	
4	
6	
1	
6	
3	
4	
5	
8	
13	
7	
10	
10	
5	
5	
11	
5	
0	
4	
4	
7	
3	
7	
6	
6	
2	
4	
7	
2	
2	
4	
7	
4	
3	
8	
4	
5	
9	
7	
8	
6	
3	
8	
7	
4	
6	
2	
11	
6	
3	
4	
5	
7	
4	
3	
6	
5	
6	
13	
7	
7	
5	
6	
5	
4	
7	
5	
6	
4	
6	
5	
4	
6	
7	
4	
6	
6	
5	
4	
6	
5	
8	
4	
3	
9	
4	
5	
2	
5	
4	
2	
5	
4	
7	
5	
6	
5	
3	
6	
6	
9	
3	
6	
7	
6	
4	
6	
4	
5	
5	
3	
10	
7	
4	
4	
5	
8	
4	
4	
6	
1	
4	
2	
3	
5	
9	
3	
8	
7	
4	
6	
3	
6	
6	
4	
10	
2	
5	
5	
3	
5	
4	
6	
5	
5	
4	
3	
5	
6	
2	
7	
6	
6	
3	
5	
6	
5	
3	
10	
5	
11	
0	
3	
5	
4	
2	
2	
6	
6	
7	
4	
4	
2	
10	
9	
7	
9	
3	
7	
5	
1	
6	
3	
11	
11	
9	
8	
8	
5	
3	
4	
2	
1	
7	
2	
9	
2	
7	
7	
2	
4	
4	
7	
10	
9	
3	
11	
10	
8	
5	
7	
7	
8	
7	
3	
5	
6	
4	
4	
10	
8	
9	
7	
8	
3	
9	
4	
8	
6	
6	
4	
6	
4	
3	
10	
6	
8	
3	
9	
5	
7	
7	
9	
6	
9	
2	
5	
4	
3	
5	
2	
2	
7	
9	
6	
4	
6	
2	
8	
8	
6	
9	
6	
5	
6	
3	
6	
7	
8	
4	
5	
9	
6	
10	
14	
14	
10	
12	
27	
15	
27	
28	
28	
51	
45	
45	
63	
69	
72	
88	
112	
119	
136	
160	
172	
207	
232	
257	
287	
324	
320	
369	
412	
500	
511	
524	
621	
652	
638	
687	
709	
719	
762	
796	
809	
818	
879	
933	
854	
881	
923	
950	
977	
930	
996	
917	
911	
989	
928	
929	
979	
989	
973	
957	
997	
942	
946	
961	
1000	
967	
949	
939	
971	
983	
889	
925	
931	
892	
965	
937	
955	
984	
960	
928	
955	
968	
904	
957	
930	
935	
928	
987	
946	
868	
935	
933	
884	
847	
926	
835	
876	
887	
852	
869	
899	
901	
907	
916	
858	
883	
915	
910	
881	
825	
845	
865	
904	
900	
847	
915	
840	
853	
845	
874	
833	
829	
843	
908	
896	
862	
919	
909	
827	
841	
826	
816	
833	
862	
836	
776	
909	
818	
869	
834	
798	
797	
808	
774	
791	
844	
775	
818	
820	
838	
787	
773	
798	
863	
798	
822	
781	
791	
789	
782	
794	
787	
813	
788	
800	
831	
745	
820	
770	
766	
813	
786	
714	
766	
762	
779	
780	
777	
769	
757	
812	
766	
772	
746	
791	
791	
777	
742	
786	
750	
824	
782	
766	
782	
738	
729	
821	
785	
766	
665	
706	
749	
756	
756	
778	
756	
694	
807	
746	
700	
705	
730	
753	
737	
733	
714	
688	
706	
747	
760	
724	
723	
756	
678	
712	
738	
710	
735	
669	
730	
735	
709	
674	
717	
722	
706	
684	
652	
749	
721	
695	
680	
700	
759	
747	
659	
728	
710	
700	
732	
715	
665	
753	
684	
753	
691	
713	
733	
714	
711	
719	
685	
708	
715	
685	
716	
706	
664	
725	
696	
670	
735	
641	
722	
675	
725	
673	
691	
692	
689	
688	
687	
701	
648	
705	
682	
638	
663	
664	
668	
676	
717	
641	
715	
689	
686	
690	
655	
700	
674	
676	
655	
689	
674	
673	
686	
698	
631	
683	
611	
694	
635	
649	
628	
661	
698	
653	
644	
721	
659	
656	
671	
688	
630	
657	
613	
665	
624	
633	
637	
647	
625	
659	
627	
656	
621	
625	
659	
644	
677	
649	
675	
660	
675	
605	
647	
613	
656	
644	
628	
665	
632	
675	
640	
610	
603	
626	
585	
656	
647	
647	
669	
658	
590	
652	
666	
663	
613	
655	
631	
579	
580	
600	
642	
615	
623	
640	
630	
620	
652	
658	
639	
635	
610	
564	
666	
607	
629	
634	
609	
605	
662	
629	
607	
579	
565	
669	
597	
615	
610	
571	
609	
574	
587	
615	
619	
636	
635	
572	
595	
626	
622	
597	
610	
538	
640	
621	
630	
591	
602	
627	
610	
586	
639	
613	
593	
575	
571	
573	
602	
571	
627	
572	
622	
569	
575	
608	
615	
613	
626	
608	
575	
610	
591	
641	
617	
572	
624	
571	
592	
558	
571	
601	
519	
580	
612	
585	
565	
612	
603	
590	
592	
613	
555	
590	
627	
617	
609	
554	
595	
577	
547	
520	
554	
560	
632	
580	
553	
548	
550	
570	
597	
554	
570	
571	
574	
555	
582	
590	
616	
572	
545	
600	
589	
577	
601	
558	
586	
575	
496	
567	
560	
577	
566	
548	
554	
558	
544	
578	
554	
558	
571	
560	
582	
520	
518	
554	
543	
541	
593	
568	
541	
562	
573	
533	
545	
529	
550	
560	
583	
577	
555	
572	
581	
552	
569	
563	
545	
553	
576	
566	
505	
567	
526	
548	
545	
572	
521	
586	
546	
516	
539	
507	
515	
516	
543	
543	
559	
550	
533	
556	
529	
546	
546	
518	
544	
580	
517	
515	
532	
521	
487	
529	
542	
542	
524	
521	
484	
558	
558	
504	
537	
539	
543	
531	
510	
534	
542	
518	
518	
538	
504	
543	
510	
521	
536	
547	
498	
517	
528	
557	
517	
551	
533	
521	
515	
487	
469	
502	
580	
497	
553	
467	
525	
523	
527	
521	
472	
521	
502	
533	
528	
524	
543	
497	
521	
533	
564	
502	
519	
507	
511	
545	
510	
503	
524	
497	
480	
556	
495	
512	
531	
512	
524	
541	
537	
496	
480	
500	
545	
523	
520	
501	
527	
523	
530	
507	
497	
522	
530	
490	
525	
488	
488	
501	
482	
541	
496	
476	
494	
500	
527	
494	
540	
477	
491	
525	
459	
503	
459	
541	
490	
523	
498	
478	
547	
513	
524	
485	
465	
497	
465	
513	
505	
508	
510	
470	
499	
500	
467	
519	
512	
519	
487	
486	
479	
476	
480	
486	
445	
481	
483	
463	
451	
513	
509	
514	
514	
478	
481	
519	
481	
504	
501	
506	
504	
483	
499	
488	
458	
498	
473	
511	
463	
466	
483	
483	
465	
478	
496	
459	
514	
482	
510	
520	
525	
461	
467	
486	
494	
513	
494	
477	
491	
489	
494	
488	
529	
495	
466	
479	
438	
453	
497	
443	
494	
505	
472	
480	
474	
471	
485	
463	
497	
444	
472	
463	
465	
474	
486	
465	
433	
487	
497	
437	
473	
449	
504	
470	
501	
496	
470	
483	
452	
460	
471	
429	
481	
485	
469	
461	
476	
465	
466	
449	
430	
507	
470	
489	
447	
431	
462	
452	
430	
437	
483	
461	
448	
457	
473	
466	
443	
448	
464	
448	
486	
450	
428	
398	
430	
446	
412	
473	
439	
446	
499	
451	
435	
431	
474	
462	
410	
425	
463	
421	
411	
468	
469	
448	
415	
472	
468	
424	
464	
451	
458	
438	
431	
413	
479	
431	
429	
462	
459	
408	
414	
475	
416	
431	
429	
470	
466	
412	
427	
440	
451	
486	
462	
462	
471	
446	
440	
437	
430	
451	
433	
458	
429	
443	
438	
443	
434	
409	
419	
423	
415	
456	
422	
439	
437	
429	
415	
444	
430	
422	
443	
473	
444	
433	
426	
382	
411	
427	
452	
410	
434	
452	
450	
460	
423	
406	
470	
426	
445	
427	
456	
418	
383	
444	
414	
419	
450	
444	
417	
427	
427	
402	
417	
423	
440	
417	
402	
428	
424	
451	
425	
428	
408	
419	
401	
434	
432	
426	
427	
447	
420	
367	
379	
400	
439	
406	
391	
438	
430	
409	
411	
420	
453	
447	
417	
412	
427	
446	
429	
404	
453	
429	
436	
388	
404	
392	
420	
396	
412	
459	
407	
401	
400	
450	
405	
449	
437	
426	
426	
417	
430	
401	
432	
453	
380	
409	
435	
434	
419	
414	
438	
421	
441	
393	
392	
438	
388	
410	
382	
398	
433	
417	
406	
415	
410	
368	
383	
437	
399	
398	
417	
400	
411	
405	
412	
407	
442	
424	
390	
425	
387	
444	
411	
386	
382	
412	
378	
379	
411	
424	
407	
429	
409	
435	
405	
400	
407	
418	
442	
379	
387	
397	
394	
445	
407	
390	
373	
402	
405	
399	
423	
430	
400	
360	
394	
375	
411	
424	
398	
385	
397	
381	
394	
399	
435	
391	
406	
392	
422	
408	
385	
387	
376	
377	
390	
425	
413	
384	
391	
377	
384	
431	
384	
399	
391	
370	
399	
401	
428	
376	
384	
380	
397	
370	
362	
397	
387	
395	
413	
424	
355	
380	
425	
402	
393	
371	
374	
423	
412	
418	
396	
372	
355	
408	
400	
387	
396	
384	
365	
369	
368	
382	
381	
409	
383	
384	
397	
354	
402	
382	
370	
371	
375	
349	
388	
369	
388	
376	
396	
381	
380	
362	
382	
385	
343	
402	
363	
357	
400	
347	
372	
361	
368	
378	
380	
383	
358	
399	
394	
391	
368	
377	
381	
376	
345	
405	
368	
355	
367	
353	
364	
386	
377	
355	
372	
375	
360	
382	
369	
374	
358	
357	
364	
357	
359	
392	
361	
380	
369	
401	
380	
356	
361	
391	
353	
359	
386	
397	
392	
359	
330	
365	
376	
391	
365	
357	
349	
363	
374	
369	
388	
386	
363	
363	
335	
372	
357	
379	
349	
403	
383	
362	
348	
364	
389	
318	
383	
384	
390	
357	
373	
373	
353	
374	
364	
370	
384	
372	
388	
375	
359	
336	
385	
366	
396	
359	
353	
362	
372	
387	
346	
341	
391	
343	
370	
361	
369	
351	
399	
388	
413	
346	
367	
379	
358	
372	
374	
378	
374	
342	
376	
373	
349	
344	
374	
335	
335	
357	
375	
357	
398	
336	
380	
354	
345	
354	
355	
330	
369	
346	
344	
327	
338	
351	
369	
316	
319	
323	
351	
337	
378	
392	
342	
321	
346	
368	
358	
348	
353	
364	
367	
342	
373	
347	
355	
373	
338	
325	
396	
335	
341	
337	
360	
340	
382	
328	
337	
339	
354	
333	
354	
338	
341	
345	
341	
373	
339	
331	
356	
338	
334	
304	
323	
347	
352	
338	
323	
329	
353	
362	
356	
351	
358	
324	
357	
344	
318	
333	
307	
325	
361	
329	
351	
344	
353	
306	
315	
367	
342	
346	
309	
319	
316	
354	
359	
349	
372	
324	
357	
321	
379	
328	
354	
372	
340	
344	
364	
372	
352	
362	
333	
352	
338	
333	
344	
335	
339	
326	
320	
303	
349	
335	
327	
331	
348	
356	
354	
321	
325	
338	
353	
330	
337	
344	
395	
309	
302	
333	
315	
361	
313	
339	
325	
328	
327	
297	
328	
320	
310	
338	
359	
327	
332	
308	
332	
336	
313	
323	
340	
349	
317	
313	
316	
315	
312	
345	
321	
368	
331	
325	
323	
324	
322	
350	
306	
323	
325	
324	
341	
340	
337	
313	
355	
319	
289	
326	
331	
293	
334	
322	
298	
325	
322	
366	
309	
341	
309	
314	
316	
293	
327	
321	
284	
320	
309	
305	
340	
307	
312	
330	
357	
336	
331	
288	
329	
323	
317	
315	
309	
293	
326	
310	
308	
289	
313	
296	
313	
324	
319	
318	
338	
332	
336	
295	
323	
324	
346	
299	
319	
351	
313	
297	
347	
342	
316	
318	
325	
322	
336	
338	
291	
322	
294	
337	
308	
309	
315	
322	
330	
316	
299	
303	
280	
302	
285	
330	
314	
308	
334	
332	
314	
321	
316	
318	
312	
324	
299	
317	
291	
290	
317	
287	
303	
311	
308	
343	
303	
319	
306	
287	
320	
316	
313	
319	
321	
319	
303	
311	
328	
305	
348	
281	
295	
315	
287	
301	
324	
335	
297	
345	
290	
300	
289	
309	
327	
307	
300	
328	
344	
317	
317	
279	
293	
300	
304	
293	
297	
284	
316	
287	
287	
308	
311	
321	
293	
316	
301	
295	
287	
303	
296	
309	
310	
319	
300	
295	
300	
317	
310	
277	
314	
263	
323	
320	
322	
308	
280	
322	
322	
282	
291	
294	
334	
304	
289	
293	
349	
331	
280	
304	
278	
293	
293	
319	
291	
296	
287	
300	
282	
282	
319	
304	
267	
282	
291	
321	
295	
284	
322	
279	
281	
315	
317	
288	
297	
288	
318	
302	
289	
306	
299	
283	
294	
304	
283	
284	
264	
314	
328	
290	
332	
282	
316	
306	
335	
299	
316	
296	
292	
327	
282	
297	
275	
298	
291	
291	
297	
301	
263	
288	
290	
294	
293	
281	
296	
296	
298	
298	
281	
299	
306	
278	
294	
292	
318	
270	
281	
297	
282	
261	
322	
324	
276	
264	
278	
303	
304	
272	
276	
256	
273	
283	
283	
275	
295	
275	
268	
284	
289	
298	
274	
272	
292	
296	
306	
326	
295	
283	
265	
300	
286	
302	
265	
281	
293	
296	
261	
291	
299	
282	
267	
282	
294	
264	
319	
253	
279	
274	
282	
295	
265	
302	
288	
290	
270	
289	
277	
273	
242	
275	
269	
290	
286	
280	
248	
284	
302	
254	
289	
302	
261	
247	
300	
296	
284	
257	
299	
306	
281	
266	
269	
294	
273	
281	
292	
274	
246	
272	
283	
272	
293	
276	
295	
290	
275	
304	
258	
258	
271	
286	
310	
233	
276	
268	
300	
286	
287	
256	
281	
273	
280	
279	
273	
290	
285	
242	
284	
323	
270	
255	
277	
264	
273	
264	
265	
297	
295	
281	
282	
276	
272	
237	
268	
309	
298	
244	
289	
250	
252	
295	
290	
289	
284	
288	
275	
254	
279	
257	
289	
260	
260	
274	
282	
219	
278	
304	
262	
251	
254	
297	
260	
273	
264	
255	
290	
252	
244	
264	
255	
270	
280	
254	
273	
273	
259	
272	
251	
275	
282	
287	
298	
229	
272	
275	
278	
292	
240	
244	
235	
259	
273	
246	
268	
258	
286	
265	
280	
279	
320	
263	
267	
267	
272	
252	
265	
268	
246	
269	
248	
276	
262	
278	
256	
265	
281	
250	
284	
267	
257	
292	
240	
250	
279	
263	
288	
265	
272	
262	
282	
262	
270	
255	
278	
261	
269	
255	
289	
251	
282	
262	
282	
267	
249	
268	
261	
258	
280	
271	
256	
236	
273	
290	
287	
272	
236	
254	
261	
274	
258	
257	
248	
252	
268	
243	
248	
241	
281	
268	
283	
238	
278	
255	
278	
260	
265	
253	
264	
241	
245	
258	
303	
249	
250	
260	
278	
275	
261	
274	
256	
263	
260	
247	
254	
253	
262	
268	
280	
247	
256	
246	
295	
233	
262	
220	
269	
250	
285	
268	
263	
279	
225	
274	
229	
237	
246	
239	
235	
236	
256	
255	
274	
242	
226	
260	
246	
260	
282	
266	
254	
282	
254	
255	
237	
264	
239	
265	
257	
254	
258	
243	
222	
241	
261	
239	
259	
251	
237	
245	
232	
256	
243	
249	
286	
255	
287	
253	
255	
259	
255	
272	
246	
255	
245	
247	
245	
257	
239	
243	
235	
274	
221	
217	
250	
240	
245	
260	
229	
259	
254	
243	
242	
240	
243	
250	
230	
265	
246	
249	
241	
248	
236	
231	
286	
271	
235	
250	
221	
233	
248	
239	
214	
248	
242	
233	
253	
258	
269	
255	
244	
241	
257	
239	
247	
235	
240	
244	
249	
270	
238	
246	
225	
243	
235	
249	
265	
262	
237	
264	
262	
236	
261	
229	
219	
237	
284	
249	
253	
253	
249	
245	
252	
256	
225	
261	
215	
260	
235	
219	
240	
263	
251	
239	
228	
241	
223	
228	
237	
234	
230	
244	
237	
224	
258	
267	
263	
243	
244	
228	
220	
245	
268	
213	
257	
239	
258	
223	
253	
247	
240	
234	
243	
260	
240	
240	
218	
233	
244	
256	
236	
273	
250	
247	
235	
234	
225	
238	
221	
245	
247	
237	
237	
251	
237	
225	
241	
233	
214	
239	
240	
221	
231	
236	
219	
212	
216	
270	
224	
244	
232	
264	
222	
232	
250	
238	
235	
247	
221	
228	
226	
272	
231	
225	
250	
227	
224	
238	
249	
234	
220	
242	
238	
221	
223	
219	
240	
235	
263	
229	
219	
216	
262	
261	
243	
219	
240	
221	
257	
232	
213	
267	
245	
247	
217	
220	
232	
245	
232	
224	
237	
200	
236	
237	
232	
216	
193	
250	
243	
212	
238	
245	
241	
257	
217	
192	
238	
239	
232	
238	
234	
244	
235	
230	
240	
238	
259	
241	
226	
238	
213	
219	
240	
223	
279	
229	
234	
254	
214	
223	
229	
243	
248	
230	
238	
210	
216	
227	
188	
252	
241	
233	
246	
231	
226	
236	
223	
228	
227	
218	
251	
205	
226	
225	
208	
215	
208	
216	
237	
218	
229	
247	
258	
214	
233	
221	
206	
217	
233	
217	
245	
210	
203	
243	
222	
241	
254	
206	
225	
203	
226	
234	
227	
216	
221	
238	
219	
191	
184	
223	
209	
251	
212	
219	
206	
212	
225	
201	
240	
234	
216	
226	
228	
242	
221	
205	
220	
215	
255	
233	
249	
254	
220	
227	
225	
211	
232	
255	
202	
215	
244	
228	
217	
230	
211	
197	
212	
223	
214	
218	
220	
224	
233	
210	
221	
207	
222	
195	
227	
231	
236	
217	
204	
234	
226	
218	
222	
228	
221	
227	
234	
189	
183	
215	
226	
204	
241	
224	
229	
210	
202	
233	
254	
215	
208	
230	
202	
212	
226	
218	
206	
206	
220	
231	
220	
212	
229	
211	
200	
207	
220	
194	
227	
194	
238	
237	
217	
220	
228	
204	
187	
223	
207	
230	
224	
185	
210	
215	
217	
225	
227	
239	
232	
205	
194	
211	
219	
231	
212	
240	
215	
220	
214	
201	
202	
233	
213	
195	
215	
202	
194	
216	
184	
211	
221	
191	
224	
204	
193	
224	
233	
201	
204	
251	
219	
189	
192	
244	
200	
217	
198	
200	
211	
216	
233	
223	
213	
232	
202	
190	
205	
223	
184	
197	
209	
209	
192	
234	
206	
208	
210	
202	
198	
217	
181	
223	
213	
228	
214	
214	
234	
197	
220	
202	
238	
220	
206	
224	
208	
213	
214	
192	
194	
222	
213	
201	
217	
202	
210	
237	
203	
209	
194	
212	
221	
238	
218	
175	
189	
206	
216	
212	
212	
216	
213	
202	
204	
194	
221	
205	
198	
203	
214	
200	
211	
192	
228	
232	
206	
203	
188	
198	
212	
176	
224	
214	
228	
231	
195	
222	
207	
211	
218	
201	
214	
210	
167	
190	
187	
203	
186	
197	
208	
210	
210	
212	
202	
184	
193	
213	
227	
182	
211	
220	
197	
214	
201	
209	
176	
181	
203	
216	
203	
199	
192	
204	
179	
195	
203	
178	
198	
211	
194	
201	
225	
185	
203	
213	
198	
191	
194	
213	
173	
215	
184	
209	
206	
197	
203	
197	
207	
200	
193	
213	
204	
207	
194	
203	
208	
206	
185	
202	
200	
206	
188	
196	
174	
199	
192	
201	
196	
205	
196	
169	
208	
209	
216	
208	
175	
197	
182	
193	
235	
190	
207	
179	
190	
188	
190	
194	
204	
191	
195	
224	
200	
216	
200	
203	
204	
189	
188	
204	
203	
189	
193	
217	
225	
171	
217	
202	
190	
218	
196	
187	
203	
201	
212	
212	
205	
188	
224	
184	
197	
192	
208	
205	
205	
190	
188	
174	
193	
221	
197	
191	
189	
191	
208	
207	
204	
207	
199	
208	
170	
218	
199	
180	
188	
183	
191	
192	
195	
183	
194	
194	
203	
194	
213	
196	
176	
191	
174	
193	
197	
199	
167	
195	
173	
211	
196	
206	
198	
197	
175	
166	
172	
221	
188	
190	
203	
176	
201	
191	
193	
181	
199	
203	
201	
206	
207	
205	
186	
185	
149	
180	
188	
196	
170	
190	
186	
189	
191	
188	
222	
172	
188	
196	
194	
182	
181	
212	
191	
212	
180	
197	
197	
200	
218	
215	
210	
191	
209	
215	
198	
194	
200	
201	
183	
194	
179	
183	
201	
188	
164	
207	
202	
180	
201	
204	
208	
215	
165	
192	
171	
188	
161	
189	
221	
167	
205	
185	
179	
176	
200	
198	
207	
175	
210	
219	
189	
176	
172	
213	
167	
191	
183	
187	
193	
205	
191	
161	
200	
201	
170	
200	
179	
188	
197	
190	
197	
186	
198	
194	
175	
186	
200	
195	
208	
180	
193	
192	
198	
153	
213	
161	
180	
204	
190	
182	
186	
187	
200	
201	
170	
169	
171	
184	
177	
205	
196	
180	
194	
189	
187	
187	
219	
166	
185	
179	
185	
182	
211	
172	
174	
188	
174	
197	
174	
170	
214	
179	
184	
182	
160	
165	
190	
154	
180	
196	
174	
181	
199	
191	
197	
185	
185	
176	
186	
184	
192	
210	
192	
189	
177	
180	
179	
203	
196	
176	
183	
178	
168	
172	
192	
195	
215	
176	
189	
170	
186	
183	
198	
192	
186	
180	
161	
176	
189	
184	
189	
162	
179	
177	
212	
173	
189	
172	
185	
216	
171	
165	
185	
199	
166	
192	
180	
196	
189	
181	
156	
181	
162	
157	
176	
187	
174	
159	
183	
193	
171	
187	
182	
190	
202	
161	
161	
204	
173	
166	
171	
189	
180	
186	
159	
148	
181	
187	
191	
196	
194	
158	
177	
175	
173	
177	
185	
148	
187	
184	
194	
184	
184	
182	
192	
183	
162	
191	
186	
178	
163	
181	
187	
164	
170	
157	
191	
193	
173	
165	
180	
191	
178	
189	
176	
185	
177	
166	
167	
174	
172	
183	
170	
186	
164	
183	
183	
173	
183	
165	
189	
181	
174	
162	
162	
176	
157	
201	
177	
204	
180	
168	
176	
173	
163	
180	
176	
184	
161	
173	
166	
154	
181	
177	
208	
190	
177	
163	
193	
148	
166	
171	
184	
171	
164	
178	
164	
157	
158	
169	
165	
157	
178	
185	
176	
180	
178	
187	
172	
153	
180	
185	
188	
181	
163	
182	
182	
183	
166	
166	
175	
173	
162	
157	
153	
164	
154	
175	
167	
175	
154	
160	
177	
169	
182	
193	
174	
160	
197	
185	
189	
177	
188	
176	
163	
141	
157	
174	
162	
175	
189	
134	
164	
182	
166	
183	
183	
188	
136	
185	
177	
167	
176	
173	
202	
166	
154	
178	
176	
176	
156	
166	
155	
182	
154	
171	
174	
177	
155	
143	
192	
142	
174	
173	
183	
165	
190	
172	
167	
167	
198	
169	
212	
172	
169	
171	
169	
171	
156	
180	
163	
204	
144	
167	
163	
161	
141	
164	
183	
172	
177	
161	
151	
167	
159	
158	
159	
149	
167	
156	
174	
167	
178	
142	
146	
162	
164	
174	
182	
169	
161	
165	
186	
147	
170	
161	
180	
183	
163	
172	
156	
192	
178	
172	
139	
163	
173	
198	
164	
185	
174	
185	
152	
161	
185	
169	
158	
163	
166	
186	
167	
139	
159	
150	
132	
154	
175	
198	
155	
161	
163	
154	
175	
157	
159	
171	
179	
173	
151	
157	
174	
151	
156	
160	
164	
155	
176	
154	
168	
155	
145	
164	
178	
147	
152	
159	
154	
147	
145	
159	
173	
162	
172	
160	
165	
180	
146	
171	
188	
145	
139	
161	
152	
175	
168	
151	
157	
166	
135	
162	
172	
144	
153	
166	
155	
185	
156	
168	
166	
149	
191	
143	
178	
145	
144	
167	
149	
187	
157	
177	
161	
150	
170	
164	
180	
178	
159	
162	
167	
161	
150	
159	
156	
175	
156	
170	
148	
168	
150	
165	
173	
155	
167	
148	
155	
156	
151	
153	
132	
136	
142	
166	
158	
161	
137	
140	
178	
173	
155	
154	
155	
142	
158	
147	
160	
149	
161	
160	
156	
149	
146	
192	
169	
168	
167	
164	
164	
164	
148	
146	
163	
146	
136	
139	
154	
159	
144	
132	
167	
177	
159	
164	
143	
155	
162	
148	
164	
162	
158	
162	
150	
142	
152	
166	
155	
147	
174	
169	
155	
163	
155	
167	
163	
145	
152	
161	
167	
165	
141	
173	
172	
156	
183	
136	
158	
177	
145	
141	
168	
156	
157	
139	
171	
159	
152	
147	
157	
156	
153	
135	
160	
170	
155	
161	
137	
156	
181	
161	
156	
163	
145	
143	
153	
149	
172	
142	
162	
172	
133	
137	
153	
149	
159	
160	
152	
167	
118	
166	
149	
148	
140	
171	
146	
152	
141	
154	
164	
151	
157	
152	
153	
173	
164	
182	
153	
141	
146	
145	
167	
123	
182	
153	
164	
152	
150	
172	
162	
164	
152	
147	
157	
161	
140	
169	
152	
164	
153	
143	
167	
155	
172	
150	
153	
152	
157	
158	
151	
137	
158	
154	
148	
151	
144	
160	
140	
123	
155	
162	
131	
148	
163	
137	
144	
151	
156	
152	
138	
144	
154	
156	
157	
137	
164	
150	
153	
157	
153	
153	
164	
144	
171	
171	
157	
144	
134	
145	
142	
146	
167	
148	
135	
145	
151	
137	
153	
140	
163	
122	
160	
166	
162	
168	
144	
147	
155	
139	
143	
159	
153	
150	
146	
165	
148	
149	
155	
161	
156	
145	
155	
152	
131	
144	
132	
133	
137	
153	
143	
156	
142	
148	
172	
150	
161	
151	
140	
143	
176	
137	
152	
150	
163	
152	
143	
162	
142	
149	
140	
136	
135	
168	
142	
130	
152	
161	
152	
121	
146	
142	
134	
147	
141	
136	
141	
148	
147	
141	
149	
169	
149	
146	
144	
172	
133	
163	
149	
143	
143	
144	
153	
151	
148	
145	
142	
171	
150	
156	
128	
146	
141	
146	
136	
138	
142	
138	
128	
146	
148	
154	
148	
135	
146	
134	
138	
135	
154	
129	
147	
143	
148	
149	
135	
148	
119	
153	
137	
141	
139	
142	
134	
172	
158	
136	
151	
116	
115	
165	
152	
149	
141	
174	
143	
125	
147	
132	
117	
140	
128	
157	
145	
139	
148	
161	
144	
138	
132	
141	
165	
153	
129	
141	
144	
138	
143	
114	
133	
136	
137	
125	
144	
152	
149	
133	
161	
164	
136	
153	
135	
168	
139	
159	
142	
132	
140	
128	
153	
131	
151	
142	
150	
145	
136	
140	
140	
128	
133	
147	
145	
134	
144	
137	
145	
139	
119	
150	
139	
147	
147	
151	
134	
143	
145	
139	
166	
148	
167	
136	
144	
160	
123	
128	
147	
133	
140	
153	
143	
161	
135	
136	
134	
126	
139	
123	
148	
129	
139	
156	
139	
153	
136	
140	
134	
142	
131	
126	
145	
124	
138	
142	
122	
148	
135	
143	
140	
152	
149	
123	
128	
137	
148	
147	
154	
136	
143	
141	
148	
139	
143	
129	
156	
146	
140	
146	
137	
139	
159	
137	
127	
138	
126	
136	
124	
139	
154	
149	
138	
138	
157	
153	
149	
131	
137	
140	
138	
144	
147	
121	
125	
117	
132	
134	
135	
138	
144	
137	
155	
145	
144	
164	
142	
130	
139	
158	
139	
137	
133	
155	
130	
139	
128	
141	
131	
153	
136	
142	
143	
136	
125	
134	
169	
143	
146	
131	
110	
153	
133	
145	
133	
123	
144	
124	
132	
150	
125	
126	
143	
128	
132	
146	
144	
137	
108	
142	
138	
144	
144	
118	
120	
142	
128	
130	
149	
159	
125	
166	
134	
148	
121	
124	
153	
127	
149	
142	
150	
132	
139	
148	
145	
143	
155	
150	
146	
126	
142	
136	
132	
145	
135	
129	
117	
126	
119	
139	
137	
146	
114	
134	
137	
152	
134	
145	
139	
143	
133	
140	
125	
138	
151	
137	
121	
132	
127	
145	
136	
117	
150	
118	
132	
110	
114	
130	
137	
133	
144	
145	
127	
141	
134	
121	
133	
121	
135	
127	
113	
127	
150	
129	
150	
124	
132	
143	
135	
132	
141	
145	
138	
145	
133	
139	
145	
130	
132	
146	
141	
135	
130	
134	
149	
139	
133	
150	
136	
116	
110	
137	
131	
133	
131	
139	
127	
145	
148	
120	
137	
125	
117	
115	
147	
128	
149	
136	
142	
120	
123	
140	
123	
132	
135	
121	
133	
124	
143	
108	
127	
149	
117	
123	
141	
145	
131	
139	
138	
132	
136	
128	
117	
114	
122	
128	
131	
136	
129	
108	
128	
114	
136	
128	
127	
125	
105	
139	
129	
129	
126	
136	
122	
120	
143	
133	
132	
112	
129	
115	
128	
139	
114	
133	
125	
111	
144	
142	
136	
135	
133	
98	
150	
137	
115	
133	
140	
145	
153	
143	
127	
120	
139	
123	
123	
109	
133	
140	
118	
147	
142	
120	
120	
130	
145	
104	
139	
133	
135	
101	
122	
119	
114	
132	
100	
131	
137	
120	
116	
137	
156	
135	
113	
130	
129	
127	
129	
143	
146	
118	
129	
135	
128	
106	
140	
126	
121	
124	
132	
122	
128	
101	
131	
128	
135	
113	
123	
133	
112	
123	
136	
138	
117	
120	
144	
112	
123	
155	
116	
127	
107	
119	
121	
127	
126	
133	
110	
113	
136	
142	
132	
140	
131	
138	
120	
121	
124	
135	
133	
125	
138	
126	
119	
106	
131	
114	
127	
133	
135	
113	
128	
120	
126	
118	
107	
102	
127	
111	
131	
129	
143	
129	
129	
132	
128	
124	
125	
113	
132	
122	
139	
132	
137	
119	
131	
127	
122	
135	
143	
132	
124	
113	
118	
121	
128	
122	
99	
157	
129	
124	
138	
113	
122	
136	
124	
137	
101	
104	
124	
138	
126	
123	
119	
145	
125	
107	
125	
120	
119	
144	
133	
113	
136	
131	
133	
113	
137	
122	
117	
119	
122	
114	
137	
123	
120	
95	
127	
119	
123	
118	
114	
112	
116	
119	
100	
122	
120	
116	
113	
121	
123	
142	
124	
118	
125	
143	
113	
117	
124	
129	
133	
127	
125	
131	
137	
130	
127	
119	
129	
112	
126	
106	
119	
127	
125	
120	
107	
100	
99	
127	
108	
135	
139	
122	
116	
124	
120	
136	
142	
125	
112	
122	
105	
122	
119	
126	
121	
137	
94	
123	
130	
118	
104	
96	
110	
113	
119	
118	
108	
109	
123	
105	
98	
134	
130	
126	
113	
117	
126	
123	
127	
122	
144	
124	
102	
122	
104	
122	
121	
131	
114	
95	
119	
124	
116	
126	
120	
120	
109	
118	
130	
123	
113	
137	
125	
112	
120	
112	
112	
121	
110	
126	
120	
125	
115	
137	
130	
102	
131	
95	
108	
123	
127	
133	
118	
116	
110	
143	
115	
116	
115	
98	
97	
123	
121	
104	
115	
123	
101	
110	
117	
112	
110	
98	
122	
129	
121	
120	
107	
104	
115	
121	
117	
123	
106	
111	
92	
113	
141	
123	
131	
129	
112	
112	
115	
128	
121	
107	
123	
113	
118	
116	
123	
115	
111	
95	
114	
120	
93	
114	
135	
105	
115	
124	
114	
107	
122	
115	
101	
110	
106	
116	
112	
106	
108	
116	
102	
116	
127	
109	
123	
129	
114	
109	
132	
122	
104	
133	
101	
123	
105	
110	
133	
137	
108	
103	
114	
108	
138	
127	
128	
114	
124	
122	
116	
118	
116	
126	
102	
111	
105	
123	
118	
126	
115	
121	
120	
113	
118	
129	
121	
106	
99	
122	
114	
123	
138	
118	
135	
115	
120	
125	
111	
110	
124	
124	
106	
114	
108	
116	
111	
126	
117	
121	
127	
106	
107	
118	
123	
126	
125	
116	
108	
125	
98	
122	
127	
116	
143	
129	
112	
115	
120	
127	
99	
104	
99	
122	
119	
101	
118	
131	
96	
119	
124	
97	
102	
99	
116	
127	
117	
101	
120	
86	
107	
109	
111	
124	
127	
111	
115	
109	
107	
129	
108	
109	
100	
110	
124	
120	
123	
120	
107	
125	
103	
121	
119	
129	
116	
110	
119	
98	
111	
118	
105	
85	
127	
114	
131	
110	
110	
111	
109	
89	
102	
125	
117	
125	
88	
113	
120	
129	
110	
103	
108	
119	
88	
110	
103	
131	
129	
115	
94	
107	
118	
112	
99	
119	
116	
102	
118	
114	
121	
116	
96	
112	
131	
106	
113	
115	
107	
96	
125	
106	
113	
101	
128	
111	
111	
116	
99	
120	
113	
130	
131	
104	
112	
113	
128	
114	
97	
120	
91	
110	
111	
103	
103	
108	
116	
119	
130	
109	
110	
118	
112	
119	
104	
121	
93	
107	
114	
116	
111	
107	
111	
106	
109	
106	
116	
108	
113	
107	
118	
102	
123	
119	
119	
120	
113	
118	
105	
103	
109	
104	
114	
116	
100	
117	
111	
100	
132	
106	
124	
113	
108	
88	
92	
112	
103	
111	
96	
124	
100	
116	
109	
108	
113	
113	
125	
102	
86	
111	
97	
111	
123	
88	
111	
102	
117	
112	
108	
91	
128	
109	
137	
98	
116	
94	
110	
105	
104	
124	
138	
98	
118	
89	
124	
126	
98	
101	
90	
104	
126	
96	
92	
94	
93	
102	
117	
115	
87	
116	
113	
114	
117	
119	
133	
100	
114	
117	
129	
111	
102	
96	
86	
127	
109	
92	
102	
114	
119	
92	
99	
102	
107	
89	
103	
104	
93	
109	
119	
99	
114	
109	
102	
109	
92	
122	
96	
104	
99	
116	
109	
99	
106	
107	
117	
114	
106	
89	
105	
134	
109	
133	
97	
97	
89	
105	
108	
100	
112	
106	
117	
111	
99	
104	
112	
101	
106	
94	
111	
116	
91	
116	
100	
89	
104	
108	
118	
130	
106	
99	
106	
97	
107	
101	
115	
92	
121	
109	
112	
110	
112	
117	
116	
101	
100	
106	
102	
95	
103	
127	
98	
115	
97	
94	
117	
116	
100	
117	
93	
123	
107	
116	
100	
113	
109	
108	
91	
102	
115	
92	
108	
94	
104	
100	
103	
102	
103	
101	
97	
94	
106	
118	
119	
116	
103	
110	
107	
104	
95	
116	
104	
94	
95	
93	
90	
103	
110	
115	
101	
98	
96	
94	
91	
115	
117	
97	
90	
104	
102	
102	
110	
104	
117	
107	
90	
112	
94	
124	
109	
84	
110	
108	
84	
101	
103	
97	
110	
112	
107	
114	
110	
82	
106	
104	
100	
98	
102	
105	
102	
121	
105	
102	
99	
101	
96	
104	
102	
120	
108	
100	
91	
98	
105	
105	
91	
106	
112	
95	
98	
91	
105	
99	
106	
94	
99	
105	
104	
90	
109	
97	
87	
108	
113	
112	
98	
101	
116	
110	
99	
102	
99	
104	
117	
110	
117	
102	
108	
105	
118	
106	
105	
101	
112	
112	
109	
90	
112	
92	
83	
118	
103	
97	
94	
100	
85	
107	
95	
90	
91	
99	
101	
103	
90	
105	
103	
118	
105	
96	
94	
100	
99	
89	
95	
85	
102	
102	
107	
94	
110	
86	
111	
108	
113	
98	
98	
99	
95	
105	
121	
82	
116	
101	
93	
114	
94	
113	
85	
82	
110	
108	
111	
86	
91	
106	
114	
92	
90	
86	
111	
98	
101	
131	
105	
112	
106	
96	
105	
90	
91	
123	
79	
92	
91	
98	
93	
98	
90	
104	
95	
93	
99	
89	
100	
95	
89	
89	
92	
112	
100	
106	
92	
107	
100	
101	
100	
98	
89	
109	
91	
91	
92	
96	
90	
109	
78	
100	
113	
120	
104	
97	
92	
99	
89	
101	
97	
97	
98	
97	
89	
100	
103	
96	
96	
100	
97	
98	
111	
94	
96	
109	
122	
114	
97	
86	
104	
97	
84	
96	
88	
111	
76	
111	
98	
98	
93	
88	
113	
101	
98	
94	
106	
88	
91	
106	
88	
115	
99	
115	
100	
104	
100	
101	
90	
104	
94	
98	
82	
108	
89	
81	
103	
94	
89	
106	
95	
97	
98	
75	
89	
95	
96	
93	
82	
103	
111	
82	
86	
86	
93	
111	
77	
108	
99	
97	
109	
70	
100	
107	
80	
92	
100	
78	
90	
92	
111	
80	
108	
102	
97	
94	
93	
84	
109	
107	
80	
100	
105	
116	
85	
87	
93	
95	
101	
109	
81	
96	
112	
107	
98	
91	
100	
78	
90	
112	
101	
104	
105	
120	
103	
88	
101	
84	
100	
96	
82	
114	
110	
76	
106	
85	
103	
79	
98	
88	
89	
101	
100	
99	
97	
87	
90	
85	
93	
103	
106	
95	
91	
82	
108	
96	
105	
108	
101	
81	
85	
95	
109	
