#PicoHarp 300  Histogram Data			05/25/2022 05:53:59 PM
#channels per curve
31250
#display curve no.
0	
#memory block no.
0	
#ns/channel
0.0320	
#counts
5	
3	
5	
6	
5	
5	
7	
1	
3	
4	
3	
3	
6	
1	
1	
9	
5	
3	
1	
4	
2	
4	
5	
4	
2	
2	
4	
6	
4	
5	
4	
6	
4	
5	
10	
4	
2	
2	
5	
3	
7	
7	
1	
5	
3	
6	
2	
6	
4	
2	
4	
4	
4	
6	
6	
5	
2	
1	
7	
4	
4	
3	
2	
2	
4	
5	
5	
2	
3	
3	
2	
2	
1	
3	
3	
5	
8	
2	
6	
8	
5	
3	
4	
6	
2	
1	
1	
4	
6	
3	
2	
10	
2	
8	
5	
4	
6	
4	
2	
1	
5	
2	
6	
4	
5	
5	
4	
1	
5	
3	
5	
4	
4	
1	
5	
2	
2	
3	
3	
3	
5	
2	
3	
3	
4	
7	
3	
2	
5	
2	
2	
4	
6	
3	
2	
3	
1	
4	
3	
3	
8	
3	
4	
7	
1	
3	
3	
3	
1	
3	
4	
1	
7	
4	
3	
6	
3	
8	
1	
3	
9	
6	
5	
6	
2	
2	
2	
4	
3	
4	
4	
5	
3	
2	
5	
3	
2	
0	
8	
4	
2	
1	
4	
4	
0	
7	
2	
6	
3	
1	
6	
3	
7	
3	
3	
9	
4	
7	
1	
2	
2	
4	
5	
3	
8	
2	
5	
3	
5	
3	
4	
9	
5	
6	
5	
6	
1	
4	
6	
7	
6	
4	
2	
3	
2	
2	
7	
6	
5	
1	
8	
3	
8	
7	
5	
3	
0	
1	
6	
7	
3	
1	
5	
2	
8	
4	
2	
3	
1	
4	
5	
3	
6	
5	
4	
1	
5	
6	
2	
2	
5	
1	
5	
4	
5	
5	
2	
5	
3	
2	
7	
4	
4	
2	
2	
2	
4	
4	
8	
4	
5	
3	
2	
1	
2	
1	
4	
6	
3	
3	
3	
6	
0	
1	
5	
3	
8	
4	
2	
4	
4	
5	
2	
6	
6	
4	
5	
4	
4	
5	
2	
6	
4	
5	
4	
3	
0	
5	
1	
3	
5	
5	
3	
8	
0	
1	
2	
3	
3	
5	
4	
1	
5	
2	
1	
6	
4	
4	
9	
8	
4	
1	
7	
5	
4	
7	
2	
5	
7	
2	
4	
1	
4	
3	
6	
5	
3	
6	
3	
4	
9	
3	
3	
2	
2	
4	
9	
5	
5	
1	
3	
4	
6	
4	
1	
3	
4	
2	
4	
4	
4	
2	
1	
7	
2	
0	
4	
2	
5	
4	
4	
4	
5	
7	
3	
4	
4	
5	
5	
3	
5	
5	
2	
4	
4	
4	
1	
6	
7	
6	
4	
4	
3	
6	
5	
3	
1	
3	
1	
2	
2	
1	
3	
2	
6	
3	
4	
5	
4	
3	
3	
8	
6	
4	
2	
7	
5	
2	
6	
4	
4	
7	
5	
3	
4	
4	
4	
6	
6	
4	
7	
4	
2	
4	
3	
5	
4	
4	
3	
2	
2	
2	
5	
4	
7	
6	
1	
8	
2	
5	
6	
3	
0	
4	
4	
3	
2	
5	
5	
3	
5	
7	
5	
5	
6	
5	
6	
6	
4	
4	
4	
3	
6	
4	
2	
6	
2	
4	
2	
6	
6	
2	
3	
1	
3	
5	
5	
4	
8	
2	
3	
3	
3	
6	
3	
2	
6	
7	
1	
2	
6	
3	
6	
5	
3	
2	
7	
5	
5	
8	
2	
2	
4	
3	
3	
4	
5	
1	
3	
4	
2	
4	
6	
4	
3	
2	
4	
3	
7	
2	
5	
4	
5	
3	
3	
0	
4	
6	
5	
3	
2	
5	
7	
5	
7	
7	
5	
1	
6	
5	
5	
3	
6	
5	
6	
6	
2	
6	
5	
2	
5	
2	
2	
6	
2	
6	
8	
3	
3	
4	
2	
2	
3	
3	
3	
3	
2	
5	
4	
5	
4	
5	
3	
3	
5	
5	
3	
2	
1	
7	
3	
3	
3	
6	
3	
2	
4	
5	
5	
2	
3	
4	
6	
2	
7	
4	
7	
1	
3	
8	
4	
3	
8	
4	
8	
2	
5	
2	
4	
2	
1	
7	
5	
4	
6	
2	
2	
5	
8	
2	
1	
2	
3	
3	
3	
5	
4	
0	
4	
2	
7	
3	
4	
1	
3	
7	
5	
4	
4	
4	
7	
3	
8	
4	
3	
4	
2	
2	
7	
5	
5	
1	
7	
7	
7	
7	
4	
3	
7	
2	
4	
8	
4	
3	
5	
6	
3	
0	
2	
2	
5	
3	
8	
2	
5	
4	
10	
3	
5	
5	
5	
6	
4	
0	
4	
6	
5	
2	
5	
2	
3	
3	
4	
5	
11	
1	
2	
4	
4	
7	
2	
6	
2	
6	
3	
6	
2	
6	
3	
5	
9	
2	
13	
4	
4	
4	
5	
2	
5	
2	
1	
4	
4	
3	
5	
9	
8	
5	
9	
4	
7	
5	
2	
4	
4	
5	
8	
2	
2	
8	
6	
2	
2	
3	
2	
7	
1	
2	
3	
3	
3	
5	
3	
9	
7	
4	
5	
4	
6	
6	
3	
4	
3	
4	
1	
5	
2	
3	
5	
6	
6	
2	
0	
3	
3	
4	
4	
8	
6	
8	
5	
4	
6	
6	
5	
5	
1	
3	
6	
2	
5	
6	
3	
6	
2	
3	
3	
3	
7	
4	
3	
0	
4	
1	
5	
4	
6	
4	
3	
1	
1	
3	
4	
1	
1	
3	
6	
7	
1	
2	
3	
5	
4	
8	
3	
4	
2	
5	
3	
3	
2	
1	
4	
5	
3	
8	
2	
2	
3	
5	
2	
3	
3	
4	
3	
3	
4	
5	
3	
4	
2	
4	
5	
1	
1	
4	
1	
4	
3	
1	
8	
8	
4	
4	
8	
4	
4	
3	
2	
1	
1	
3	
3	
2	
3	
4	
6	
8	
5	
1	
2	
1	
7	
2	
5	
3	
3	
0	
6	
1	
6	
4	
6	
4	
1	
6	
6	
4	
4	
5	
6	
3	
5	
3	
4	
4	
4	
2	
3	
3	
0	
3	
7	
6	
1	
2	
1	
3	
1	
5	
2	
4	
2	
3	
6	
5	
2	
10	
3	
4	
4	
5	
2	
6	
6	
9	
5	
11	
9	
8	
6	
7	
10	
19	
19	
18	
21	
27	
24	
32	
38	
28	
41	
56	
57	
70	
101	
80	
89	
120	
153	
167	
180	
222	
250	
284	
303	
358	
325	
417	
459	
493	
528	
516	
561	
573	
630	
684	
694	
679	
744	
734	
696	
746	
801	
742	
810	
827	
848	
892	
884	
879	
834	
834	
879	
913	
847	
873	
889	
912	
868	
861	
946	
912	
914	
943	
873	
865	
949	
908	
940	
885	
1000	
874	
967	
863	
893	
890	
875	
875	
911	
848	
900	
878	
889	
916	
894	
860	
840	
902	
867	
871	
813	
910	
847	
884	
820	
827	
884	
883	
892	
842	
863	
823	
879	
811	
864	
897	
887	
850	
838	
855	
824	
810	
876	
860	
825	
799	
887	
823	
821	
827	
889	
865	
788	
793	
794	
830	
822	
835	
876	
808	
837	
831	
816	
829	
809	
787	
807	
766	
792	
820	
824	
802	
775	
813	
854	
849	
819	
795	
816	
829	
781	
760	
785	
790	
820	
800	
835	
792	
781	
792	
754	
838	
797	
777	
759	
773	
696	
783	
763	
744	
779	
796	
793	
809	
687	
712	
741	
742	
774	
717	
789	
788	
726	
714	
770	
733	
745	
799	
743	
756	
710	
714	
831	
703	
784	
744	
731	
738	
792	
756	
728	
743	
715	
788	
747	
733	
737	
733	
697	
741	
764	
732	
740	
718	
768	
714	
793	
699	
699	
723	
777	
723	
728	
768	
730	
751	
718	
762	
727	
683	
708	
736	
704	
763	
717	
732	
684	
721	
713	
674	
714	
738	
745	
693	
711	
707	
712	
683	
720	
695	
696	
692	
630	
723	
716	
668	
682	
701	
704	
692	
705	
649	
657	
659	
677	
676	
663	
727	
704	
721	
728	
702	
722	
707	
654	
675	
662	
691	
716	
678	
669	
711	
644	
694	
653	
711	
644	
683	
707	
660	
719	
691	
645	
662	
697	
721	
627	
691	
701	
684	
650	
620	
711	
656	
632	
679	
666	
679	
632	
687	
640	
604	
649	
654	
638	
685	
630	
661	
662	
670	
626	
641	
649	
650	
709	
594	
668	
641	
665	
653	
634	
656	
723	
641	
600	
621	
630	
657	
641	
597	
624	
613	
606	
682	
628	
617	
625	
627	
611	
616	
657	
609	
641	
630	
629	
678	
588	
658	
640	
612	
610	
588	
608	
579	
643	
637	
633	
609	
608	
605	
617	
607	
630	
578	
601	
623	
625	
635	
602	
642	
607	
568	
567	
577	
622	
614	
591	
653	
602	
620	
604	
617	
590	
565	
569	
592	
580	
635	
612	
592	
552	
581	
610	
593	
593	
624	
615	
579	
587	
583	
544	
588	
585	
558	
610	
572	
617	
597	
566	
575	
568	
607	
602	
592	
632	
561	
597	
584	
515	
552	
585	
596	
579	
563	
556	
599	
625	
564	
588	
571	
578	
601	
554	
552	
598	
546	
568	
574	
590	
584	
551	
608	
572	
557	
563	
545	
563	
514	
591	
572	
550	
561	
549	
547	
586	
605	
603	
579	
567	
585	
558	
556	
580	
577	
547	
594	
552	
536	
556	
547	
552	
585	
519	
554	
557	
558	
570	
550	
542	
552	
557	
526	
515	
495	
532	
527	
545	
549	
515	
510	
600	
550	
588	
506	
539	
558	
518	
526	
514	
558	
544	
540	
515	
573	
508	
515	
555	
567	
626	
532	
487	
509	
509	
546	
532	
569	
536	
506	
523	
535	
561	
543	
497	
504	
542	
547	
538	
532	
498	
508	
522	
527	
521	
505	
477	
503	
597	
552	
484	
515	
509	
517	
510	
515	
529	
535	
505	
530	
484	
523	
533	
468	
518	
528	
545	
560	
553	
547	
490	
525	
496	
508	
547	
520	
548	
521	
515	
528	
532	
517	
513	
518	
539	
484	
496	
530	
511	
493	
466	
445	
520	
503	
516	
488	
521	
519	
512	
512	
504	
504	
528	
522	
510	
495	
496	
529	
514	
488	
491	
482	
503	
509	
494	
513	
461	
499	
519	
468	
515	
475	
513	
448	
480	
501	
497	
497	
487	
523	
482	
491	
501	
509	
447	
460	
505	
499	
490	
486	
480	
493	
445	
503	
484	
467	
473	
470	
467	
489	
473	
479	
478	
500	
505	
476	
483	
487	
467	
453	
467	
446	
451	
474	
459	
470	
481	
481	
439	
450	
477	
485	
479	
462	
465	
486	
446	
462	
455	
459	
472	
516	
458	
436	
482	
433	
457	
462	
486	
457	
417	
471	
480	
480	
470	
467	
477	
433	
446	
448	
449	
464	
476	
498	
418	
452	
474	
472	
463	
442	
451	
486	
487	
443	
453	
437	
467	
432	
440	
432	
417	
431	
415	
446	
467	
452	
450	
442	
451	
404	
459	
412	
413	
431	
439	
447	
409	
479	
413	
452	
447	
420	
452	
461	
435	
468	
433	
419	
445	
452	
458	
412	
456	
501	
414	
426	
418	
398	
412	
412	
460	
443	
416	
482	
440	
467	
421	
399	
416	
456	
429	
449	
410	
462	
456	
433	
454	
432	
442	
421	
460	
431	
411	
427	
424	
447	
419	
437	
434	
440	
401	
400	
442	
430	
449	
404	
394	
423	
396	
416	
415	
406	
437	
440	
423	
421	
410	
430	
410	
378	
446	
409	
427	
433	
411	
413	
443	
423	
424	
434	
417	
363	
412	
422	
382	
389	
448	
415	
410	
415	
427	
430	
421	
409	
406	
406	
403	
390	
416	
448	
394	
405	
385	
464	
430	
426	
390	
396	
388	
418	
396	
445	
413	
426	
402	
439	
387	
424	
420	
408	
387	
390	
411	
408	
387	
389	
440	
418	
414	
442	
384	
427	
414	
396	
390	
402	
359	
406	
414	
400	
400	
400	
390	
371	
396	
399	
387	
403	
383	
386	
399	
379	
386	
398	
428	
405	
442	
406	
356	
423	
392	
398	
409	
368	
385	
376	
414	
381	
431	
420	
378	
415	
400	
385	
446	
405	
401	
371	
433	
389	
407	
373	
376	
395	
381	
402	
416	
369	
429	
369	
412	
373	
382	
389	
399	
400	
363	
367	
373	
394	
393	
394	
388	
395	
393	
349	
359	
365	
422	
395	
394	
386	
375	
385	
373	
377	
392	
365	
379	
389	
396	
377	
334	
369	
354	
405	
348	
377	
357	
397	
384	
343	
383	
374	
421	
365	
334	
369	
378	
374	
360	
349	
346	
348	
386	
356	
393	
370	
359	
409	
364	
350	
369	
309	
370	
383	
349	
349	
342	
422	
363	
374	
390	
385	
359	
364	
380	
340	
383	
366	
374	
400	
348	
375	
373	
372	
358	
359	
353	
344	
332	
355	
386	
370	
365	
347	
366	
380	
350	
375	
372	
327	
332	
365	
357	
325	
383	
391	
361	
368	
330	
348	
369	
364	
344	
376	
382	
361	
375	
365	
320	
373	
341	
340	
371	
379	
351	
376	
330	
340	
371	
346	
371	
338	
334	
396	
366	
350	
343	
331	
356	
322	
367	
354	
355	
325	
372	
386	
357	
366	
339	
336	
342	
337	
351	
358	
334	
331	
329	
370	
322	
340	
354	
339	
292	
313	
331	
352	
356	
353	
365	
316	
339	
353	
346	
355	
378	
327	
360	
291	
324	
332	
345	
315	
320	
349	
342	
329	
343	
337	
343	
365	
363	
346	
331	
333	
328	
334	
326	
329	
355	
347	
328	
365	
332	
329	
362	
345	
311	
339	
322	
350	
345	
314	
330	
332	
351	
295	
357	
327	
351	
366	
332	
351	
346	
291	
312	
340	
349	
319	
320	
324	
358	
330	
337	
361	
291	
323	
351	
322	
285	
330	
310	
295	
315	
337	
322	
327	
346	
329	
330	
276	
337	
350	
331	
331	
356	
311	
339	
318	
315	
333	
340	
328	
335	
324	
358	
300	
321	
329	
333	
315	
333	
340	
338	
309	
348	
331	
313	
342	
316	
363	
275	
324	
303	
306	
303	
342	
286	
292	
293	
346	
329	
320	
337	
325	
327	
312	
313	
326	
311	
330	
329	
310	
316	
333	
313	
310	
314	
306	
298	
307	
297	
306	
333	
339	
307	
307	
310	
300	
313	
311	
324	
309	
321	
317	
319	
319	
301	
303	
317	
284	
329	
327	
320	
292	
333	
280	
299	
305	
310	
316	
315	
319	
311	
289	
307	
306	
342	
301	
283	
310	
328	
303	
299	
296	
311	
328	
264	
331	
327	
289	
302	
307	
293	
325	
275	
270	
313	
286	
298	
288	
310	
312	
294	
309	
303	
314	
306	
298	
288	
333	
290	
311	
284	
307	
325	
304	
305	
296	
298	
300	
284	
309	
297	
279	
338	
288	
311	
308	
295	
294	
290	
304	
288	
289	
314	
300	
323	
282	
287	
294	
267	
305	
291	
296	
287	
313	
273	
312	
320	
286	
300	
276	
286	
282	
290	
327	
314	
283	
274	
278	
293	
282	
293	
306	
287	
314	
260	
285	
288	
267	
279	
303	
308	
313	
315	
314	
277	
311	
268	
321	
325	
288	
304	
308	
299	
296	
304	
283	
260	
279	
294	
272	
272	
253	
283	
304	
281	
304	
269	
279	
293	
294	
301	
246	
298	
270	
298	
259	
282	
305	
282	
282	
296	
290	
269	
301	
264	
300	
299	
282	
294	
293	
295	
270	
287	
269	
255	
275	
277	
274	
273	
294	
304	
272	
258	
296	
285	
279	
270	
298	
279	
277	
265	
295	
285	
295	
243	
268	
281	
291	
274	
268	
297	
276	
292	
282	
279	
254	
265	
273	
260	
279	
270	
289	
261	
269	
287	
281	
277	
254	
308	
277	
296	
301	
262	
260	
273	
299	
292	
284	
270	
296	
286	
274	
256	
291	
279	
277	
263	
282	
259	
277	
257	
247	
241	
254	
289	
248	
274	
289	
275	
273	
255	
284	
279	
274	
293	
251	
273	
268	
269	
243	
262	
241	
261	
266	
268	
262	
278	
286	
265	
247	
262	
285	
245	
262	
284	
266	
267	
241	
279	
236	
280	
250	
261	
258	
245	
258	
267	
271	
239	
258	
254	
273	
248	
278	
253	
269	
288	
269	
259	
268	
274	
263	
292	
243	
264	
264	
277	
268	
258	
243	
269	
237	
254	
231	
270	
268	
253	
276	
267	
268	
241	
251	
252	
272	
267	
238	
260	
258	
262	
255	
269	
257	
260	
264	
230	
282	
259	
238	
283	
260	
236	
242	
264	
257	
250	
234	
254	
265	
252	
258	
236	
275	
245	
229	
236	
250	
245	
271	
278	
272	
239	
252	
264	
235	
250	
247	
258	
236	
291	
250	
250	
266	
275	
280	
237	
236	
252	
248	
228	
258	
256	
241	
277	
233	
256	
262	
269	
217	
245	
253	
243	
262	
259	
265	
248	
244	
258	
215	
263	
295	
234	
226	
246	
240	
261	
259	
245	
247	
261	
252	
251	
244	
233	
270	
276	
261	
257	
237	
240	
257	
258	
241	
248	
256	
273	
263	
248	
253	
230	
245	
262	
237	
244	
228	
236	
297	
258	
254	
248	
239	
254	
238	
236	
252	
252	
228	
233	
234	
263	
241	
237	
238	
236	
253	
215	
219	
246	
246	
260	
236	
215	
235	
250	
205	
255	
226	
240	
232	
245	
225	
254	
240	
222	
203	
253	
266	
254	
231	
204	
220	
206	
256	
228	
227	
231	
245	
249	
215	
260	
241	
261	
260	
260	
266	
256	
216	
214	
251	
251	
255	
231	
236	
208	
211	
227	
243	
247	
234	
228	
239	
265	
238	
225	
237	
260	
234	
211	
220	
241	
225	
225	
209	
231	
231	
257	
223	
259	
224	
231	
217	
219	
223	
233	
210	
236	
247	
207	
214	
221	
239	
223	
227	
224	
247	
221	
226	
237	
200	
245	
224	
245	
196	
209	
254	
212	
249	
231	
234	
231	
228	
220	
228	
224	
221	
227	
254	
245	
232	
229	
221	
231	
237	
252	
226	
223	
210	
231	
218	
198	
228	
262	
212	
232	
259	
226	
210	
251	
219	
200	
248	
217	
210	
228	
234	
242	
238	
230	
234	
218	
238	
234	
251	
231	
232	
207	
235	
208	
210	
214	
228	
250	
214	
213	
214	
207	
234	
213	
196	
229	
233	
232	
202	
235	
235	
245	
215	
184	
206	
218	
211	
226	
194	
203	
233	
201	
207	
213	
202	
233	
209	
238	
226	
251	
224	
196	
199	
217	
229	
217	
212	
236	
199	
217	
213	
191	
216	
223	
216	
202	
208	
212	
197	
213	
199	
208	
209	
198	
207	
216	
198	
228	
215	
198	
205	
219	
163	
234	
225	
210	
211	
245	
221	
199	
225	
199	
193	
218	
204	
220	
207	
211	
229	
212	
197	
194	
215	
213	
227	
211	
222	
208	
208	
197	
201	
192	
189	
211	
193	
173	
190	
187	
205	
192	
214	
228	
201	
216	
224	
209	
238	
226	
207	
193	
196	
196	
197	
223	
225	
199	
191	
221	
202	
200	
232	
199	
191	
205	
200	
182	
236	
198	
226	
201	
197	
207	
199	
210	
214	
198	
186	
224	
198	
203	
219	
193	
220	
226	
184	
189	
190	
202	
212	
208	
210	
206	
186	
218	
198	
219	
225	
214	
208	
187	
215	
172	
221	
212	
209	
222	
209	
198	
176	
207	
213	
196	
190	
192	
212	
199	
242	
190	
185	
189	
221	
200	
198	
210	
186	
210	
214	
189	
200	
188	
199	
210	
200	
186	
183	
226	
174	
191	
186	
213	
205	
193	
188	
205	
190	
205	
215	
200	
206	
205	
191	
196	
213	
193	
166	
203	
198	
191	
197	
195	
214	
184	
193	
185	
204	
197	
170	
190	
186	
192	
197	
180	
206	
198	
205	
216	
183	
191	
203	
204	
201	
213	
202	
201	
208	
175	
225	
207	
190	
204	
214	
191	
187	
193	
187	
193	
181	
195	
206	
186	
189	
182	
196	
189	
183	
188	
222	
195	
182	
217	
164	
191	
193	
182	
208	
173	
203	
197	
187	
214	
209	
187	
206	
191	
215	
190	
187	
232	
169	
179	
194	
174	
192	
218	
193	
194	
195	
226	
202	
196	
190	
193	
198	
195	
209	
185	
200	
224	
198	
162	
178	
188	
163	
196	
178	
190	
175	
172	
200	
195	
205	
183	
195	
195	
199	
190	
177	
197	
183	
192	
182	
205	
197	
199	
190	
182	
200	
191	
199	
184	
195	
203	
205	
173	
165	
199	
189	
188	
176	
179	
185	
179	
171	
173	
189	
213	
164	
184	
188	
194	
201	
176	
181	
194	
214	
179	
170	
170	
184	
160	
176	
169	
187	
183	
210	
197	
191	
185	
158	
182	
182	
176	
187	
207	
185	
185	
184	
196	
183	
164	
184	
168	
180	
189	
179	
198	
175	
184	
166	
180	
173	
181	
177	
172	
176	
168	
173	
199	
178	
177	
181	
181	
178	
180	
211	
165	
195	
179	
161	
179	
181	
197	
196	
177	
186	
159	
166	
176	
184	
192	
175	
177	
181	
181	
197	
167	
155	
192	
174	
207	
181	
181	
169	
181	
153	
173	
181	
143	
171	
175	
155	
167	
170	
167	
172	
165	
167	
172	
182	
162	
184	
166	
180	
163	
174	
173	
173	
160	
173	
187	
182	
165	
164	
200	
164	
168	
176	
186	
151	
193	
174	
185	
172	
177	
195	
200	
177	
166	
180	
152	
188	
187	
185	
155	
166	
205	
178	
177	
172	
188	
173	
177	
188	
163	
183	
178	
177	
186	
189	
183	
176	
174	
177	
201	
156	
161	
181	
147	
170	
174	
167	
151	
188	
184	
173	
171	
166	
176	
171	
168	
160	
184	
159	
171	
180	
197	
159	
195	
155	
186	
193	
167	
174	
169	
172	
173	
126	
163	
158	
154	
163	
190	
162	
153	
155	
174	
158	
177	
178	
163	
164	
178	
189	
174	
197	
182	
203	
159	
164	
150	
188	
148	
160	
160	
162	
165	
168	
170	
154	
170	
153	
173	
152	
156	
173	
170	
163	
148	
150	
152	
173	
167	
147	
161	
139	
182	
150	
155	
186	
185	
194	
169	
185	
163	
189	
176	
171	
176	
169	
149	
175	
164	
185	
164	
161	
160	
170	
154	
160	
184	
172	
175	
149	
173	
168	
169	
149	
159	
179	
155	
155	
161	
148	
147	
170	
145	
166	
161	
166	
152	
160	
157	
173	
170	
172	
166	
183	
176	
189	
160	
166	
170	
153	
178	
163	
164	
160	
159	
177	
157	
169	
136	
145	
159	
155	
166	
146	
153	
158	
175	
160	
151	
162	
182	
162	
166	
157	
169	
175	
155	
181	
190	
165	
173	
155	
142	
153	
154	
151	
152	
199	
156	
158	
150	
159	
152	
186	
157	
165	
141	
152	
148	
162	
170	
163	
169	
160	
163	
180	
151	
162	
152	
159	
142	
148	
165	
150	
169	
137	
176	
173	
147	
137	
160	
155	
178	
159	
178	
171	
144	
154	
147	
160	
146	
163	
149	
154	
168	
156	
155	
161	
160	
149	
155	
170	
165	
162	
144	
151	
161	
162	
160	
142	
154	
178	
169	
170	
156	
177	
149	
148	
174	
168	
168	
151	
149	
147	
185	
164	
165	
166	
145	
163	
131	
147	
172	
147	
156	
147	
131	
168	
156	
160	
153	
137	
160	
136	
163	
166	
156	
156	
166	
139	
150	
140	
153	
131	
176	
161	
147	
153	
132	
154	
162	
138	
158	
151	
148	
138	
149	
154	
157	
136	
162	
160	
142	
157	
158	
128	
141	
149	
161	
144	
162	
184	
156	
140	
134	
147	
145	
164	
167	
158	
155	
155	
141	
164	
144	
144	
160	
144	
139	
138	
148	
166	
162	
172	
135	
123	
133	
156	
135	
148	
147	
136	
135	
148	
135	
149	
145	
163	
141	
154	
130	
135	
158	
147	
141	
149	
160	
157	
149	
138	
142	
170	
174	
155	
145	
129	
146	
142	
143	
139	
145	
143	
148	
162	
144	
154	
129	
126	
151	
148	
151	
143	
142	
156	
152	
143	
157	
155	
144	
151	
143	
154	
160	
141	
157	
168	
152	
152	
135	
148	
131	
136	
151	
143	
156	
137	
151	
168	
156	
130	
128	
157	
153	
134	
146	
154	
149	
137	
146	
148	
143	
138	
144	
135	
155	
155	
159	
135	
147	
141	
123	
151	
147	
156	
142	
138	
142	
167	
158	
130	
139	
126	
159	
163	
137	
142	
160	
170	
152	
153	
145	
134	
129	
143	
128	
128	
142	
129	
153	
139	
142	
154	
132	
150	
130	
149	
157	
112	
151	
152	
152	
162	
132	
147	
137	
166	
157	
149	
161	
140	
139	
140	
140	
142	
161	
145	
151	
126	
146	
140	
140	
132	
140	
159	
154	
131	
135	
137	
137	
158	
120	
116	
149	
120	
124	
123	
127	
115	
134	
145	
142	
147	
135	
133	
145	
145	
142	
139	
144	
140	
126	
125	
123	
137	
142	
137	
156	
137	
138	
139	
142	
122	
136	
138	
131	
157	
149	
144	
142	
133	
140	
140	
149	
148	
152	
119	
116	
130	
144	
138	
135	
148	
135	
139	
126	
138	
139	
146	
128	
139	
151	
134	
120	
116	
135	
145	
142	
157	
126	
130	
129	
133	
132	
143	
130	
151	
131	
142	
128	
127	
131	
145	
137	
150	
137	
129	
130	
132	
140	
146	
106	
143	
113	
155	
152	
119	
140	
125	
125	
112	
142	
142	
149	
121	
129	
131	
138	
136	
152	
162	
107	
152	
175	
142	
131	
129	
129	
148	
134	
131	
125	
134	
159	
123	
130	
131	
116	
152	
119	
148	
129	
125	
118	
151	
147	
146	
131	
123	
144	
153	
147	
131	
145	
136	
138	
130	
131	
130	
126	
122	
111	
145	
149	
127	
143	
124	
142	
126	
129	
133	
149	
133	
117	
124	
140	
134	
121	
141	
137	
132	
117	
148	
131	
129	
124	
154	
130	
128	
136	
134	
117	
129	
117	
135	
122	
129	
125	
136	
126	
148	
126	
116	
119	
145	
127	
114	
140	
126	
130	
160	
124	
107	
130	
119	
143	
122	
117	
138	
117	
119	
137	
105	
113	
113	
127	
120	
120	
140	
122	
150	
146	
140	
115	
127	
149	
117	
120	
131	
120	
143	
134	
109	
151	
134	
139	
114	
137	
126	
131	
145	
115	
135	
119	
110	
124	
132	
127	
123	
134	
128	
127	
132	
102	
124	
132	
121	
122	
131	
130	
131	
123	
130	
139	
129	
126	
121	
163	
111	
132	
125	
133	
116	
130	
125	
132	
113	
116	
128	
125	
110	
119	
110	
112	
139	
120	
134	
144	
135	
137	
122	
122	
119	
121	
123	
141	
161	
121	
117	
120	
135	
125	
113	
139	
124	
117	
133	
118	
116	
106	
144	
127	
150	
111	
123	
124	
125	
98	
121	
138	
144	
117	
130	
131	
118	
130	
127	
106	
149	
140	
136	
141	
128	
135	
104	
112	
117	
149	
135	
122	
133	
118	
123	
114	
111	
115	
134	
121	
120	
93	
126	
96	
124	
111	
121	
130	
129	
127	
115	
116	
124	
133	
116	
131	
137	
131	
117	
134	
107	
133	
136	
123	
140	
97	
118	
114	
127	
117	
120	
112	
115	
127	
113	
137	
111	
120	
113	
125	
118	
116	
117	
102	
116	
130	
130	
138	
132	
120	
108	
108	
116	
112	
108	
118	
104	
130	
123	
129	
118	
126	
115	
124	
120	
106	
115	
114	
138	
120	
125	
126	
131	
108	
117	
96	
118	
108	
116	
115	
101	
115	
110	
97	
118	
122	
133	
132	
121	
113	
111	
115	
130	
126	
126	
121	
125	
88	
108	
112	
123	
136	
128	
108	
117	
124	
127	
101	
116	
113	
124	
111	
111	
127	
117	
93	
115	
132	
117	
113	
117	
130	
109	
138	
120	
112	
119	
96	
127	
116	
101	
125	
125	
125	
120	
114	
123	
124	
102	
108	
117	
128	
117	
112	
137	
126	
101	
121	
120	
110	
95	
124	
109	
118	
121	
113	
127	
124	
112	
113	
105	
115	
105	
116	
114	
129	
120	
131	
111	
110	
127	
117	
99	
113	
120	
117	
113	
122	
124	
103	
129	
113	
129	
109	
124	
118	
116	
99	
108	
125	
106	
120	
112	
105	
131	
114	
118	
101	
106	
100	
118	
123	
130	
118	
123	
125	
129	
109	
111	
116	
101	
121	
89	
110	
123	
103	
99	
124	
129	
97	
123	
102	
112	
134	
113	
108	
118	
119	
100	
109	
119	
143	
106	
116	
111	
96	
132	
91	
121	
132	
124	
99	
113	
98	
106	
98	
111	
125	
116	
109	
128	
114	
116	
88	
140	
107	
110	
97	
110	
108	
118	
106	
116	
114	
113	
113	
119	
104	
118	
121	
100	
111	
118	
107	
109	
101	
118	
118	
107	
89	
117	
106	
88	
104	
100	
100	
115	
121	
120	
104	
110	
125	
116	
118	
112	
120	
134	
113	
114	
103	
94	
96	
110	
109	
91	
100	
125	
109	
117	
115	
104	
102	
102	
103	
100	
106	
127	
105	
111	
111	
107	
115	
107	
88	
111	
117	
124	
136	
132	
126	
83	
102	
104	
114	
100	
94	
129	
120	
109	
110	
117	
112	
106	
95	
110	
116	
105	
118	
97	
103	
115	
110	
101	
106	
95	
115	
110	
117	
121	
97	
101	
108	
128	
111	
92	
112	
117	
105	
112	
112	
104	
117	
106	
121	
97	
99	
107	
110	
107	
100	
106	
103	
107	
97	
101	
103	
110	
117	
117	
117	
94	
87	
110	
90	
108	
97	
89	
119	
118	
111	
101	
111	
128	
114	
127	
122	
100	
105	
108	
105	
98	
105	
114	
96	
106	
119	
122	
113	
108	
102	
83	
116	
90	
112	
108	
100	
119	
111	
111	
91	
117	
101	
102	
108	
94	
121	
91	
110	
95	
95	
103	
95	
86	
125	
104	
99	
102	
99	
115	
105	
119	
96	
115	
97	
114	
90	
106	
106	
130	
111	
87	
107	
111	
105	
82	
104	
105	
110	
132	
103	
107	
108	
108	
100	
112	
125	
79	
106	
101	
108	
95	
101	
105	
108	
83	
99	
95	
115	
100	
134	
97	
120	
114	
101	
89	
87	
106	
98	
86	
112	
88	
105	
99	
103	
110	
113	
101	
119	
110	
108	
113	
99	
108	
116	
108	
102	
106	
92	
105	
105	
111	
124	
109	
109	
100	
104	
114	
92	
109	
93	
75	
109	
126	
94	
111	
112	
114	
92	
107	
108	
107	
81	
97	
119	
91	
100	
110	
109	
95	
106	
81	
76	
112	
96	
99	
98	
107	
98	
94	
93	
113	
118	
85	
97	
103	
112	
92	
100	
119	
86	
75	
113	
104	
118	
109	
85	
93	
94	
112	
96	
101	
95	
95	
102	
108	
110	
82	
106	
113	
88	
105	
103	
112	
108	
117	
107	
104	
101	
100	
102	
94	
103	
108	
97	
120	
103	
89	
88	
99	
102	
99	
111	
116	
116	
108	
101	
99	
92	
107	
95	
120	
126	
102	
113	
97	
95	
110	
92	
89	
93	
111	
98	
85	
88	
97	
100	
106	
91	
102	
103	
106	
97	
89	
104	
101	
91	
95	
104	
90	
95	
92	
113	
111	
95	
84	
112	
108	
112	
88	
75	
84	
82	
95	
103	
107	
104	
83	
84	
90	
90	
95	
96	
80	
92	
115	
82	
87	
119	
85	
109	
98	
93	
91	
84	
80	
102	
88	
105	
82	
78	
89	
93	
118	
99	
103	
92	
90	
79	
97	
98	
97	
100	
98	
97	
96	
100	
103	
91	
97	
104	
89	
98	
92	
99	
102	
89	
92	
104	
97	
109	
92	
96	
99	
100	
98	
91	
96	
120	
95	
104	
102	
95	
98	
98	
100	
112	
93	
80	
79	
104	
96	
104	
94	
94	
86	
97	
95	
96	
99	
91	
81	
96	
106	
98	
93	
121	
103	
94	
104	
95	
97	
100	
80	
96	
88	
93	
93	
100	
99	
96	
98	
86	
88	
90	
83	
94	
83	
95	
96	
93	
74	
96	
95	
106	
95	
104	
86	
91	
94	
79	
89	
90	
106	
104	
94	
85	
92	
95	
92	
90	
91	
92	
59	
91	
119	
97	
99	
79	
94	
95	
87	
94	
104	
106	
79	
78	
104	
79	
104	
78	
110	
100	
91	
90	
86	
85	
87	
83	
92	
90	
95	
107	
90	
103	
97	
88	
107	
93	
92	
100	
86	
95	
83	
90	
91	
106	
101	
90	
93	
93	
91	
82	
110	
86	
77	
96	
108	
108	
93	
79	
94	
79	
96	
81	
89	
94	
85	
89	
71	
89	
98	
90	
82	
88	
91	
92	
86	
79	
90	
95	
113	
105	
85	
87	
94	
87	
88	
87	
90	
87	
102	
94	
109	
83	
100	
78	
98	
97	
93	
96	
97	
90	
99	
98	
98	
83	
98	
88	
92	
98	
84	
89	
85	
94	
94	
76	
79	
95	
92	
95	
83	
85	
92	
108	
86	
75	
76	
89	
95	
87	
101	
85	
78	
83	
102	
90	
94	
81	
82	
71	
112	
81	
103	
81	
89	
76	
96	
77	
100	
84	
105	
106	
89	
76	
84	
81	
74	
78	
87	
86	
82	
95	
80	
83	
86	
98	
95	
90	
95	
98	
91	
101	
85	
80	
88	
85	
97	
90	
84	
88	
90	
103	
82	
73	
83	
101	
94	
98	
82	
93	
93	
79	
86	
97	
97	
78	
86	
91	
110	
93	
108	
87	
95	
92	
87	
95	
90	
71	
79	
115	
83	
97	
91	
89	
90	
102	
103	
93	
111	
107	
84	
88	
84	
83	
97	
94	
78	
93	
93	
77	
88	
77	
94	
77	
99	
85	
87	
88	
81	
87	
82	
94	
84	
88	
86	
109	
84	
108	
90	
102	
94	
87	
91	
89	
92	
72	
89	
86	
82	
80	
77	
92	
80	
104	
77	
92	
97	
102	
86	
85	
83	
78	
80	
95	
84	
90	
79	
97	
89	
77	
84	
63	
84	
79	
87	
87	
85	
81	
85	
91	
83	
95	
92	
85	
86	
76	
92	
84	
110	
105	
81	
87	
87	
85	
84	
89	
102	
83	
93	
85	
83	
81	
84	
88	
94	
104	
82	
85	
88	
74	
95	
85	
95	
78	
74	
79	
78	
88	
106	
93	
86	
72	
77	
99	
83	
92	
103	
92	
78	
106	
85	
84	
81	
75	
80	
85	
93	
94	
80	
89	
77	
89	
79	
84	
72	
91	
81	
81	
74	
86	
88	
83	
80	
81	
71	
85	
77	
77	
80	
85	
83	
85	
76	
84	
80	
88	
93	
105	
97	
100	
81	
73	
103	
92	
78	
93	
77	
91	
78	
84	
81	
89	
85	
74	
96	
98	
98	
99	
87	
91	
86	
83	
66	
77	
99	
72	
86	
77	
80	
88	
89	
90	
68	
90	
73	
76	
77	
80	
81	
69	
89	
80	
77	
76	
85	
93	
75	
67	
62	
65	
101	
81	
85	
89	
105	
89	
90	
72	
89	
104	
85	
94	
86	
72	
61	
90	
88	
101	
72	
74	
77	
83	
72	
83	
91	
58	
86	
96	
80	
97	
78	
85	
99	
80	
81	
79	
98	
82	
90	
70	
81	
72	
91	
77	
89	
95	
89	
86	
81	
80	
87	
81	
79	
84	
81	
75	
86	
94	
80	
95	
92	
70	
77	
77	
85	
73	
80	
76	
77	
74	
69	
65	
92	
101	
95	
80	
84	
74	
79	
77	
76	
84	
79	
87	
88	
77	
80	
64	
90	
61	
88	
87	
80	
74	
84	
103	
86	
85	
85	
82	
84	
73	
79	
78	
77	
68	
79	
98	
77	
76	
71	
70	
72	
75	
59	
87	
76	
100	
74	
78	
82	
84	
86	
71	
72	
71	
81	
73	
69	
74	
75	
78	
80	
68	
71	
81	
74	
88	
76	
83	
71	
89	
83	
88	
61	
83	
74	
87	
86	
79	
78	
70	
73	
73	
80	
93	
79	
73	
66	
73	
67	
64	
86	
69	
73	
77	
80	
76	
58	
75	
78	
71	
71	
90	
90	
96	
73	
82	
83	
80	
75	
68	
69	
80	
64	
89	
86	
79	
75	
71	
76	
72	
64	
85	
69	
72	
79	
81	
84	
71	
77	
73	
85	
61	
83	
87	
94	
78	
77	
75	
77	
68	
71	
66	
81	
72	
75	
73	
70	
83	
83	
94	
95	
84	
80	
90	
79	
77	
69	
76	
79	
82	
71	
69	
79	
59	
69	
74	
75	
69	
81	
72	
79	
88	
75	
68	
73	
77	
79	
85	
74	
74	
81	
73	
69	
58	
87	
70	
69	
66	
86	
86	
80	
90	
60	
81	
70	
81	
87	
93	
69	
65	
64	
73	
73	
85	
93	
79	
82	
86	
81	
71	
84	
94	
82	
78	
68	
70	
87	
66	
84	
66	
78	
69	
95	
71	
70	
96	
71	
71	
86	
79	
67	
77	
83	
79	
86	
77	
75	
94	
73	
61	
87	
76	
73	
80	
75	
78	
87	
77	
76	
69	
78	
80	
97	
82	
70	
77	
97	
76	
79	
60	
97	
80	
83	
78	
75	
73	
68	
70	
74	
66	
79	
71	
69	
62	
76	
82	
65	
63	
73	
74	
76	
81	
79	
84	
77	
76	
66	
68	
85	
85	
65	
72	
66	
82	
60	
90	
85	
85	
78	
79	
75	
73	
59	
69	
80	
90	
65	
52	
71	
79	
81	
75	
80	
69	
80	
63	
74	
70	
81	
67	
69	
68	
76	
64	
75	
90	
65	
74	
72	
67	
74	
72	
64	
81	
87	
80	
64	
82	
71	
64	
64	
70	
69	
76	
74	
73	
83	
90	
84	
70	
63	
63	
84	
79	
69	
53	
68	
75	
78	
67	
74	
85	
84	
78	
66	
85	
57	
73	
69	
73	
76	
77	
77	
67	
80	
62	
58	
61	
73	
77	
66	
78	
72	
51	
68	
68	
72	
73	
81	
87	
59	
69	
65	
68	
72	
72	
89	
82	
78	
61	
73	
69	
67	
67	
62	
82	
73	
77	
87	
83	
78	
84	
75	
85	
85	
81	
64	
67	
68	
74	
84	
83	
59	
74	
76	
66	
68	
59	
67	
64	
72	
65	
74	
73	
78	
72	
63	
68	
67	
85	
81	
75	
87	
62	
68	
79	
74	
59	
64	
67	
63	
62	
74	
70	
71	
67	
79	
71	
68	
68	
67	
65	
76	
63	
82	
90	
78	
80	
76	
68	
66	
85	
71	
76	
93	
67	
68	
78	
65	
59	
68	
59	
59	
62	
58	
69	
64	
75	
64	
75	
88	
73	
71	
71	
87	
62	
67	
80	
64	
71	
69	
63	
65	
65	
81	
67	
88	
65	
70	
75	
65	
74	
57	
62	
78	
58	
67	
69	
58	
64	
59	
79	
68	
78	
57	
74	
55	
87	
63	
57	
66	
80	
62	
71	
75	
57	
79	
73	
84	
50	
69	
60	
80	
64	
81	
76	
74	
58	
65	
74	
62	
69	
71	
78	
68	
70	
74	
75	
67	
64	
59	
58	
53	
63	
75	
54	
79	
75	
82	
75	
74	
69	
78	
63	
51	
65	
71	
71	
68	
57	
63	
63	
79	
74	
73	
84	
71	
68	
70	
80	
68	
80	
69	
74	
62	
62	
53	
69	
68	
76	
66	
67	
81	
77	
76	
78	
63	
62	
71	
78	
71	
71	
82	
68	
72	
77	
79	
69	
69	
57	
76	
80	
60	
63	
63	
57	
81	
58	
76	
66	
65	
71	
65	
56	
69	
68	
64	
68	
81	
66	
60	
64	
77	
77	
71	
58	
80	
74	
74	
91	
64	
81	
68	
72	
66	
72	
62	
54	
46	
75	
67	
65	
62	
62	
59	
67	
80	
66	
74	
74	
75	
68	
67	
60	
59	
63	
56	
54	
63	
78	
55	
68	
62	
64	
59	
69	
72	
60	
65	
76	
56	
68	
65	
64	
61	
62	
69	
59	
65	
84	
74	
62	
67	
56	
69	
69	
67	
69	
67	
72	
65	
74	
59	
69	
58	
69	
76	
56	
63	
57	
62	
57	
55	
58	
65	
63	
63	
53	
63	
66	
61	
57	
64	
72	
57	
70	
73	
65	
69	
61	
65	
61	
53	
68	
83	
77	
60	
64	
75	
75	
73	
68	
64	
69	
72	
76	
68	
57	
68	
50	
51	
61	
47	
74	
61	
56	
65	
61	
68	
64	
68	
73	
60	
57	
74	
76	
70	
55	
69	
74	
56	
63	
56	
63	
65	
62	
59	
65	
59	
56	
52	
62	
70	
68	
62	
61	
55	
63	
55	
64	
65	
81	
70	
75	
61	
74	
63	
77	
65	
65	
63	
60	
70	
63	
59	
56	
65	
72	
75	
53	
60	
79	
61	
47	
55	
69	
73	
62	
68	
49	
64	
58	
67	
66	
78	
77	
68	
67	
56	
60	
62	
67	
59	
65	
67	
57	
74	
65	
74	
80	
61	
57	
60	
78	
71	
56	
77	
54	
61	
71	
63	
57	
61	
76	
67	
69	
66	
66	
55	
65	
70	
69	
68	
56	
53	
58	
57	
62	
60	
55	
60	
58	
57	
65	
55	
53	
62	
70	
61	
58	
73	
58	
70	
78	
70	
53	
64	
60	
69	
64	
55	
47	
52	
69	
67	
75	
75	
51	
59	
72	
68	
55	
51	
65	
76	
69	
49	
59	
65	
80	
59	
51	
66	
69	
78	
63	
54	
65	
59	
46	
73	
54	
55	
62	
57	
71	
62	
38	
58	
61	
64	
68	
52	
39	
49	
63	
58	
70	
78	
58	
66	
63	
50	
75	
77	
62	
52	
50	
53	
72	
71	
67	
50	
75	
65	
64	
67	
58	
49	
56	
73	
59	
63	
66	
56	
56	
66	
51	
58	
57	
56	
62	
71	
62	
75	
81	
63	
67	
59	
69	
71	
43	
63	
64	
73	
70	
67	
86	
63	
51	
67	
66	
59	
58	
53	
72	
45	
62	
84	
78	
55	
45	
66	
67	
65	
57	
64	
44	
54	
69	
51	
56	
74	
58	
71	
63	
55	
64	
62	
49	
64	
54	
63	
50	
65	
69	
61	
65	
44	
67	
57	
70	
73	
70	
71	
53	
46	
60	
47	
56	
72	
59	
70	
63	
50	
69	
62	
57	
62	
58	
62	
57	
69	
46	
60	
44	
63	
68	
52	
73	
46	
65	
68	
47	
64	
62	
61	
58	
61	
64	
57	
51	
58	
62	
51	
70	
71	
66	
59	
52	
56	
67	
65	
74	
58	
66	
56	
67	
51	
61	
69	
46	
80	
41	
60	
58	
50	
59	
71	
63	
81	
52	
64	
60	
74	
51	
63	
70	
71	
73	
65	
62	
66	
49	
67	
66	
60	
51	
51	
65	
63	
66	
51	
49	
50	
56	
81	
47	
61	
61	
66	
65	
47	
74	
66	
65	
57	
58	
64	
68	
55	
61	
61	
55	
44	
63	
49	
61	
53	
60	
52	
60	
60	
49	
45	
56	
72	
76	
60	
73	
58	
72	
69	
64	
67	
53	
57	
70	
57	
65	
54	
50	
67	
71	
68	
54	
55	
61	
63	
65	
60	
55	
52	
77	
70	
64	
57	
69	
59	
53	
51	
52	
61	
46	
45	
62	
50	
59	
56	
48	
51	
58	
61	
65	
68	
62	
57	
47	
58	
56	
62	
47	
46	
49	
53	
69	
61	
68	
57	
47	
47	
61	
55	
63	
47	
63	
60	
69	
64	
55	
55	
46	
51	
60	
68	
55	
