#PicoHarp 300  Histogram Data			05/25/2022 06:04:02 PM
#channels per curve
31250
#display curve no.
0	
#memory block no.
0	
#ns/channel
0.0320	
#counts
3	
0	
1	
0	
0	
3	
3	
0	
4	
5	
0	
1	
5	
1	
1	
7	
4	
1	
3	
2	
0	
2	
2	
0	
4	
0	
4	
2	
2	
1	
1	
1	
3	
2	
5	
2	
1	
0	
2	
1	
3	
4	
1	
2	
3	
4	
1	
3	
2	
2	
0	
3	
0	
1	
1	
3	
0	
3	
4	
3	
1	
2	
1	
0	
4	
1	
0	
1	
0	
0	
2	
2	
1	
0	
3	
1	
1	
2	
5	
0	
3	
3	
3	
3	
1	
1	
2	
2	
0	
2	
1	
1	
2	
4	
0	
2	
1	
0	
0	
1	
0	
3	
0	
2	
4	
1	
2	
4	
3	
0	
1	
1	
4	
0	
2	
0	
1	
1	
1	
0	
0	
1	
2	
0	
0	
3	
2	
1	
0	
0	
4	
2	
2	
4	
1	
1	
0	
3	
1	
2	
2	
5	
1	
0	
4	
1	
2	
4	
2	
2	
3	
1	
5	
2	
2	
2	
4	
1	
1	
1	
0	
0	
2	
0	
2	
0	
3	
4	
2	
2	
1	
3	
6	
3	
0	
1	
0	
0	
1	
1	
0	
2	
1	
2	
4	
4	
3	
0	
0	
4	
2	
3	
0	
1	
0	
2	
1	
0	
2	
3	
2	
0	
6	
1	
2	
0	
1	
1	
2	
1	
2	
2	
2	
1	
3	
1	
0	
2	
1	
0	
4	
5	
0	
2	
0	
2	
1	
4	
2	
1	
0	
0	
1	
2	
4	
3	
4	
4	
3	
1	
0	
3	
1	
3	
2	
0	
1	
0	
2	
2	
1	
2	
5	
2	
0	
3	
1	
2	
1	
2	
2	
0	
2	
2	
2	
3	
2	
2	
1	
1	
3	
0	
1	
0	
3	
4	
2	
2	
2	
2	
2	
3	
3	
0	
3	
0	
1	
1	
2	
0	
1	
2	
0	
3	
3	
3	
2	
0	
3	
1	
1	
2	
0	
1	
1	
0	
1	
1	
1	
1	
2	
5	
0	
2	
0	
2	
3	
0	
1	
1	
0	
1	
0	
1	
3	
2	
1	
2	
0	
0	
1	
3	
1	
0	
2	
4	
1	
1	
1	
3	
0	
0	
0	
2	
1	
3	
0	
2	
2	
1	
2	
2	
1	
1	
1	
3	
0	
3	
2	
0	
5	
2	
0	
1	
1	
1	
1	
2	
2	
1	
1	
0	
1	
1	
1	
3	
1	
1	
1	
1	
1	
0	
3	
2	
4	
1	
1	
1	
1	
5	
0	
2	
1	
4	
1	
1	
2	
1	
1	
1	
1	
0	
1	
1	
3	
1	
2	
1	
2	
1	
2	
3	
1	
2	
2	
2	
1	
2	
1	
0	
4	
2	
2	
1	
1	
3	
3	
0	
1	
2	
3	
1	
1	
0	
2	
0	
3	
1	
3	
1	
1	
1	
1	
1	
2	
3	
3	
0	
1	
2	
6	
1	
3	
2	
4	
3	
3	
0	
3	
1	
0	
0	
3	
2	
2	
5	
1	
3	
1	
1	
1	
4	
3	
1	
1	
2	
4	
2	
2	
2	
0	
2	
1	
1	
2	
1	
1	
0	
4	
2	
4	
2	
0	
3	
1	
2	
0	
0	
2	
2	
1	
0	
1	
1	
0	
0	
2	
2	
0	
3	
3	
4	
2	
3	
2	
1	
3	
0	
2	
1	
3	
1	
2	
1	
2	
0	
2	
2	
2	
1	
8	
0	
0	
7	
0	
0	
1	
2	
4	
2	
1	
2	
4	
3	
1	
5	
0	
1	
1	
0	
2	
0	
0	
2	
2	
1	
0	
2	
1	
1	
3	
0	
0	
4	
3	
4	
4	
1	
2	
2	
1	
2	
1	
1	
2	
2	
2	
2	
1	
3	
3	
1	
1	
0	
3	
2	
1	
3	
2	
2	
0	
0	
1	
0	
0	
3	
2	
0	
2	
2	
0	
2	
1	
0	
1	
1	
1	
0	
4	
3	
1	
3	
1	
3	
3	
1	
0	
2	
2	
2	
1	
1	
2	
0	
2	
2	
1	
1	
0	
3	
1	
2	
2	
3	
4	
2	
1	
4	
2	
0	
4	
1	
0	
0	
1	
3	
3	
0	
1	
1	
1	
1	
1	
2	
3	
2	
0	
0	
2	
1	
4	
1	
1	
3	
1	
1	
3	
2	
1	
4	
3	
1	
2	
3	
1	
2	
2	
0	
1	
2	
1	
0	
5	
3	
2	
3	
1	
2	
2	
0	
1	
0	
1	
3	
1	
1	
0	
0	
0	
1	
0	
0	
3	
0	
3	
3	
0	
1	
3	
1	
3	
2	
1	
2	
1	
0	
1	
1	
0	
1	
2	
3	
3	
0	
2	
3	
2	
2	
1	
3	
2	
1	
3	
2	
1	
2	
2	
2	
5	
2	
0	
1	
1	
2	
0	
3	
1	
1	
5	
2	
0	
2	
2	
2	
3	
1	
3	
1	
2	
2	
0	
1	
2	
2	
2	
2	
1	
7	
0	
0	
1	
1	
1	
2	
2	
2	
3	
2	
2	
2	
3	
1	
1	
3	
2	
0	
0	
0	
3	
2	
1	
1	
1	
2	
2	
1	
1	
6	
0	
1	
3	
2	
3	
2	
2	
3	
0	
2	
0	
2	
2	
1	
3	
1	
1	
0	
2	
1	
1	
1	
3	
2	
3	
0	
3	
1	
1	
3	
0	
2	
1	
0	
1	
4	
0	
3	
0	
1	
1	
2	
2	
1	
1	
3	
0	
0	
4	
1	
2	
3	
0	
1	
2	
1	
2	
2	
1	
0	
1	
2	
3	
4	
1	
2	
2	
0	
2	
2	
1	
1	
0	
3	
3	
3	
1	
2	
4	
0	
1	
0	
0	
3	
5	
0	
0	
4	
1	
2	
2	
4	
1	
1	
2	
1	
1	
2	
1	
0	
1	
3	
0	
1	
4	
1	
1	
2	
2	
1	
4	
2	
1	
1	
0	
3	
0	
5	
2	
0	
0	
2	
1	
2	
1	
1	
1	
0	
0	
1	
2	
1	
4	
1	
0	
2	
1	
3	
3	
1	
1	
2	
2	
3	
3	
2	
2	
1	
0	
3	
1	
2	
2	
2	
4	
2	
1	
4	
2	
0	
3	
4	
2	
1	
2	
2	
1	
3	
5	
0	
1	
5	
5	
3	
5	
4	
5	
5	
3	
6	
4	
7	
9	
11	
11	
14	
16	
13	
14	
32	
25	
27	
40	
36	
62	
58	
56	
54	
90	
95	
79	
92	
105	
104	
128	
155	
141	
143	
154	
160	
161	
164	
167	
183	
202	
180	
220	
181	
207	
198	
221	
213	
194	
201	
206	
231	
221	
199	
227	
255	
216	
246	
235	
195	
246	
194	
215	
211	
214	
217	
207	
239	
214	
207	
228	
210	
229	
203	
231	
222	
197	
207	
188	
191	
221	
224	
195	
206	
242	
220	
200	
215	
171	
209	
209	
198	
212	
211	
215	
190	
219	
247	
199	
228	
205	
206	
214	
207	
207	
204	
233	
200	
215	
193	
218	
223	
235	
214	
218	
208	
208	
196	
213	
220	
191	
207	
213	
215	
225	
198	
198	
189	
216	
207	
199	
202	
205	
187	
162	
209	
227	
214	
184	
171	
196	
186	
199	
202	
185	
177	
175	
175	
191	
203	
207	
193	
202	
154	
203	
196	
184	
215	
193	
166	
195	
185	
166	
191	
188	
201	
198	
200	
176	
165	
176	
191	
186	
190	
205	
201	
186	
204	
176	
184	
164	
196	
190	
187	
204	
179	
199	
167	
175	
182	
172	
191	
158	
187	
175	
172	
200	
167	
193	
188	
187	
182	
178	
168	
202	
197	
174	
181	
190	
189	
196	
165	
172	
172	
168	
183	
205	
180	
188	
171	
177	
177	
183	
168	
197	
177	
143	
180	
183	
191	
179	
164	
182	
181	
180	
191	
156	
176	
172	
155	
175	
187	
157	
173	
167	
181	
160	
170	
163	
168	
184	
175	
179	
174	
198	
158	
139	
173	
171	
172	
171	
169	
169	
166	
157	
167	
161	
167	
180	
196	
182	
171	
163	
178	
170	
149	
183	
191	
179	
169	
174	
176	
164	
159	
171	
170	
169	
163	
171	
149	
178	
161	
186	
160	
165	
164	
163	
172	
177	
157	
128	
191	
180	
161	
166	
154	
167	
142	
140	
177	
168	
157	
185	
147	
171	
182	
176	
164	
167	
178	
159	
150	
174	
150	
164	
157	
183	
176	
158	
166	
162	
180	
167	
152	
164	
149	
160	
121	
153	
136	
156	
171	
162	
185	
176	
172	
170	
154	
170	
149	
157	
161	
163	
167	
143	
141	
165	
152	
164	
145	
173	
149	
148	
148	
164	
161	
144	
171	
178	
165	
151	
144	
139	
133	
143	
185	
145	
174	
164	
159	
146	
148	
158	
159	
153	
141	
163	
146	
129	
128	
146	
159	
144	
145	
156	
143	
154	
148	
167	
145	
144	
157	
155	
158	
141	
156	
126	
167	
161	
149	
151	
168	
163	
140	
138	
141	
137	
146	
144	
136	
162	
165	
138	
146	
145	
129	
163	
149	
147	
129	
172	
176	
131	
142	
128	
143	
119	
123	
145	
153	
149	
128	
154	
150	
157	
168	
136	
161	
122	
145	
167	
134	
153	
136	
149	
128	
159	
134	
176	
151	
133	
142	
139	
131	
126	
156	
141	
148	
130	
150	
153	
122	
126	
142	
156	
146	
150	
145	
140	
127	
133	
137	
130	
129	
134	
146	
122	
130	
142	
127	
135	
152	
141	
137	
143	
131	
133	
153	
157	
147	
144	
141	
123	
138	
123	
141	
133	
142	
116	
141	
132	
130	
140	
110	
126	
161	
111	
141	
124	
147	
122	
150	
139	
122	
139	
130	
130	
130	
140	
133	
152	
137	
154	
123	
123	
125	
154	
146	
111	
125	
137	
125	
148	
163	
128	
144	
123	
123	
132	
110	
130	
141	
126	
126	
136	
145	
105	
121	
129	
132	
126	
130	
146	
142	
144	
135	
110	
135	
137	
136	
99	
130	
128	
129	
136	
129	
148	
143	
147	
120	
115	
163	
116	
130	
121	
124	
133	
142	
122	
128	
120	
120	
149	
129	
116	
119	
129	
131	
111	
128	
112	
126	
138	
142	
119	
143	
128	
122	
114	
137	
127	
131	
143	
128	
126	
124	
123	
125	
138	
132	
113	
130	
112	
122	
126	
112	
134	
130	
122	
121	
110	
109	
117	
143	
117	
131	
128	
116	
111	
125	
108	
118	
121	
112	
149	
129	
133	
123	
127	
111	
100	
118	
133	
152	
124	
115	
113	
127	
130	
117	
119	
103	
112	
118	
106	
107	
146	
126	
135	
111	
115	
116	
111	
107	
115	
116	
143	
127	
118	
126	
108	
118	
116	
108	
124	
120	
149	
115	
111	
119	
99	
132	
156	
119	
120	
132	
127	
124	
128	
144	
126	
104	
126	
128	
124	
139	
111	
111	
119	
116	
106	
110	
83	
123	
119	
111	
127	
99	
114	
113	
118	
100	
131	
105	
110	
108	
113	
121	
125	
124	
113	
117	
116	
109	
98	
104	
111	
126	
102	
100	
122	
118	
126	
134	
122	
103	
127	
105	
113	
127	
121	
106	
120	
111	
92	
105	
128	
124	
106	
117	
131	
128	
132	
123	
106	
120	
127	
100	
126	
110	
111	
117	
130	
105	
89	
103	
108	
141	
123	
99	
127	
107	
113	
109	
121	
111	
124	
122	
115	
96	
100	
128	
104	
114	
123	
89	
141	
120	
95	
105	
99	
94	
105	
123	
104	
98	
114	
107	
113	
108	
108	
102	
109	
104	
125	
118	
119	
111	
106	
106	
115	
116	
105	
113	
115	
108	
105	
104	
92	
103	
109	
100	
133	
112	
111	
111	
116	
109	
119	
96	
100	
115	
101	
116	
101	
121	
102	
129	
103	
99	
106	
121	
113	
102	
98	
113	
98	
89	
119	
98	
105	
107	
101	
91	
99	
117	
97	
108	
107	
97	
97	
129	
106	
97	
99	
102	
107	
101	
99	
104	
110	
109	
99	
120	
84	
110	
104	
113	
103	
105	
120	
85	
126	
111	
118	
88	
108	
90	
99	
102	
112	
80	
89	
99	
101	
99	
94	
106	
94	
89	
97	
110	
108	
108	
96	
105	
102	
98	
109	
110	
81	
110	
96	
96	
98	
96	
93	
97	
105	
111	
121	
108	
99	
96	
106	
106	
104	
114	
114	
91	
109	
89	
109	
102	
88	
95	
101	
86	
85	
108	
126	
110	
90	
96	
85	
107	
110	
109	
92	
103	
114	
103	
109	
112	
100	
95	
115	
98	
95	
92	
94	
103	
94	
98	
97	
90	
92	
102	
96	
102	
102	
94	
89	
97	
93	
84	
100	
102	
102	
100	
93	
105	
114	
85	
86	
114	
94	
108	
94	
82	
90	
105	
97	
91	
86	
100	
75	
89	
104	
79	
82	
95	
89	
111	
90	
110	
87	
85	
96	
95	
105	
94	
98	
87	
107	
104	
90	
94	
95	
98	
93	
104	
107	
99	
109	
96	
127	
97	
102	
96	
98	
75	
82	
116	
103	
66	
98	
92	
92	
99	
103	
107	
99	
91	
106	
84	
93	
95	
89	
95	
100	
106	
133	
79	
113	
89	
98	
98	
94	
79	
103	
119	
97	
85	
91	
92	
91	
80	
88	
82	
97	
101	
93	
85	
89	
87	
104	
87	
104	
94	
78	
96	
98	
78	
86	
87	
101	
72	
100	
101	
92	
93	
96	
77	
95	
85	
93	
105	
100	
89	
98	
106	
81	
88	
91	
98	
84	
84	
95	
90	
66	
96	
94	
90	
98	
106	
92	
84	
89	
86	
86	
100	
74	
103	
76	
86	
85	
84	
90	
77	
94	
85	
78	
80	
105	
86	
84	
82	
91	
89	
90	
84	
92	
91	
95	
84	
85	
89	
93	
73	
82	
85	
99	
85	
92	
85	
81	
90	
92	
86	
79	
83	
73	
82	
87	
80	
100	
101	
66	
93	
88	
99	
84	
80	
105	
92	
80	
84	
73	
90	
90	
102	
75	
73	
78	
78	
94	
84	
84	
72	
82	
86	
76	
75	
86	
82	
66	
79	
78	
102	
76	
80	
88	
82	
76	
83	
69	
88	
78	
84	
95	
82	
85	
96	
92	
93	
90	
104	
73	
71	
79	
77	
93	
103	
80	
80	
91	
78	
97	
76	
97	
74	
108	
81	
68	
70	
91	
68	
78	
90	
72	
73	
63	
73	
72	
80	
74	
72	
91	
82	
89	
87	
85	
81	
71	
93	
75	
86	
72	
76	
84	
84	
75	
76	
83	
87	
80	
79	
84	
75	
71	
86	
91	
93	
79	
101	
97	
77	
85	
90	
88	
102	
73	
66	
83	
89	
77	
97	
81	
92	
78	
79	
85	
87	
80	
80	
71	
84	
93	
73	
95	
67	
77	
92	
88	
66	
67	
68	
74	
90	
63	
86	
81	
92	
73	
78	
97	
72	
88	
74	
86	
64	
82	
64	
78	
75	
67	
90	
83	
75	
75	
83	
68	
70	
76	
85	
89	
83	
93	
80	
76	
84	
76	
81	
99	
88	
67	
72	
84	
87	
71	
94	
77	
80	
78	
84	
92	
67	
69	
74	
77	
73	
85	
65	
85	
71	
83	
66	
79	
71	
73	
82	
100	
82	
84	
72	
82	
81	
73	
72	
77	
73	
79	
99	
74	
56	
83	
71	
79	
78	
73	
74	
76	
88	
81	
76	
75	
83	
70	
82	
66	
93	
82	
80	
59	
85	
72	
77	
104	
88	
79	
78	
91	
68	
79	
75	
100	
68	
54	
70	
70	
67	
69	
104	
52	
79	
80	
67	
96	
60	
79	
73	
86	
69	
68	
72	
78	
63	
83	
88	
61	
69	
67	
72	
82	
79	
88	
87	
69	
71	
72	
68	
79	
80	
82	
64	
71	
68	
80	
63	
69	
71	
70	
62	
64	
83	
85	
86	
72	
64	
84	
64	
87	
77	
79	
68	
69	
71	
69	
63	
63	
77	
58	
61	
74	
69	
70	
71	
77	
64	
79	
59	
72	
64	
66	
73	
70	
81	
83	
65	
82	
67	
73	
78	
70	
77	
58	
66	
68	
58	
82	
65	
73	
76	
71	
64	
73	
69	
66	
61	
66	
79	
64	
71	
79	
76	
59	
73	
65	
66	
78	
68	
82	
68	
66	
62	
72	
78	
76	
79	
59	
77	
69	
62	
81	
75	
52	
77	
60	
71	
72	
61	
71	
76	
55	
77	
67	
78	
67	
77	
74	
83	
63	
64	
59	
75	
64	
64	
79	
71	
78	
84	
55	
75	
59	
70	
84	
57	
76	
64	
66	
72	
78	
70	
76	
77	
67	
73	
64	
68	
64	
49	
57	
65	
73	
91	
57	
78	
64	
81	
64	
80	
77	
85	
71	
69	
76	
70	
67	
71	
69	
66	
84	
87	
71	
81	
76	
62	
51	
65	
69	
68	
71	
64	
51	
67	
73	
64	
67	
92	
58	
68	
69	
86	
64	
70	
75	
79	
70	
58	
78	
67	
71	
57	
60	
82	
60	
60	
62	
59	
57	
76	
67	
65	
63	
76	
63	
49	
59	
80	
62	
79	
49	
64	
62	
63	
65	
67	
60	
65	
70	
64	
71	
57	
76	
47	
72	
60	
67	
59	
61	
72	
73	
79	
59	
74	
66	
81	
69	
61	
65	
66	
59	
76	
64	
63	
74	
68	
71	
79	
66	
61	
60	
53	
68	
51	
70	
59	
60	
65	
57	
60	
76	
76	
50	
81	
61	
56	
55	
60	
54	
59	
60	
54	
52	
65	
75	
57	
81	
75	
52	
60	
58	
58	
62	
66	
59	
51	
59	
63	
52	
57	
56	
63	
73	
57	
62	
63	
71	
54	
61	
62	
90	
52	
65	
67	
68	
59	
46	
63	
67	
72	
58	
63	
65	
67	
51	
75	
65	
68	
75	
70	
63	
65	
55	
69	
72	
55	
63	
76	
76	
72	
58	
58	
61	
63	
64	
60	
53	
65	
61	
64	
66	
64	
57	
56	
70	
68	
69	
67	
64	
55	
71	
59	
53	
51	
54	
72	
70	
63	
65	
65	
50	
63	
59	
63	
63	
55	
67	
62	
48	
58	
64	
69	
60	
63	
61	
82	
72	
54	
53	
56	
61	
60	
59	
66	
61	
58	
58	
64	
73	
59	
54	
60	
77	
70	
64	
57	
57	
66	
62	
75	
56	
53	
38	
53	
53	
52	
56	
59	
65	
60	
62	
59	
49	
66	
61	
59	
55	
65	
54	
68	
56	
62	
70	
70	
59	
64	
62	
62	
62	
71	
65	
66	
52	
56	
56	
67	
51	
56	
51	
56	
70	
56	
63	
64	
60	
67	
50	
69	
50	
63	
65	
57	
61	
70	
50	
56	
50	
53	
57	
65	
43	
54	
51	
58	
55	
45	
54	
58	
61	
52	
54	
56	
68	
57	
55	
69	
53	
66	
49	
51	
58	
53	
63	
62	
60	
79	
51	
53	
45	
55	
58	
56	
48	
50	
56	
60	
62	
66	
68	
61	
75	
61	
57	
48	
54	
44	
63	
53	
57	
65	
50	
51	
58	
61	
50	
65	
60	
65	
57	
48	
51	
52	
67	
69	
56	
59	
61	
62	
69	
58	
47	
58	
63	
57	
61	
46	
60	
54	
60	
67	
57	
63	
57	
52	
53	
54	
48	
55	
50	
51	
71	
68	
58	
56	
46	
63	
43	
52	
55	
62	
60	
66	
63	
52	
61	
50	
73	
50	
69	
51	
48	
63	
73	
63	
56	
50	
49	
54	
53	
54	
55	
66	
57	
57	
50	
53	
53	
46	
45	
71	
50	
51	
54	
55	
55	
70	
56	
56	
52	
42	
60	
68	
61	
40	
50	
47	
64	
52	
65	
69	
55	
71	
61	
54	
51	
60	
66	
56	
53	
50	
43	
61	
55	
40	
50	
65	
50	
65	
53	
44	
55	
56	
50	
59	
55	
61	
54	
52	
55	
55	
36	
50	
52	
54	
56	
48	
51	
48	
63	
49	
62	
51	
56	
54	
51	
50	
55	
61	
55	
50	
49	
63	
61	
61	
48	
59	
57	
43	
50	
47	
60	
58	
53	
51	
58	
54	
48	
48	
61	
49	
65	
57	
58	
62	
60	
52	
53	
50	
51	
51	
45	
45	
53	
49	
45	
54	
43	
48	
50	
44	
39	
54	
46	
68	
56	
47	
54	
56	
60	
55	
62	
51	
47	
48	
42	
62	
45	
35	
59	
59	
59	
49	
43	
52	
46	
58	
51	
61	
56	
38	
63	
51	
46	
61	
54	
45	
49	
58	
44	
57	
31	
40	
43	
54	
44	
55	
51	
53	
41	
46	
58	
42	
50	
39	
51	
51	
50	
51	
47	
55	
42	
48	
53	
47	
54	
56	
40	
44	
50	
50	
50	
43	
65	
43	
42	
44	
42	
55	
50	
53	
51	
50	
43	
51	
44	
47	
54	
45	
56	
52	
51	
47	
55	
55	
49	
43	
46	
51	
51	
60	
58	
52	
46	
45	
47	
55	
51	
54	
54	
56	
36	
55	
40	
39	
62	
50	
61	
44	
57	
50	
47	
48	
47	
48	
54	
54	
49	
51	
41	
52	
60	
44	
49	
39	
49	
54	
54	
59	
32	
47	
47	
56	
48	
47	
52	
43	
48	
35	
57	
48	
42	
50	
47	
53	
54	
49	
54	
50	
49	
42	
36	
63	
51	
55	
67	
53	
49	
44	
40	
50	
41	
48	
48	
44	
58	
51	
45	
66	
61	
54	
45	
58	
41	
34	
48	
63	
50	
58	
49	
61	
64	
46	
43	
47	
51	
41	
47	
52	
46	
57	
50	
50	
52	
47	
45	
46	
51	
52	
44	
53	
44	
55	
41	
55	
53	
50	
62	
56	
54	
57	
46	
35	
59	
41	
51	
61	
36	
22	
53	
53	
50	
46	
55	
58	
41	
52	
36	
52	
62	
50	
57	
32	
47	
55	
51	
46	
41	
39	
35	
35	
48	
47	
57	
47	
46	
51	
46	
47	
41	
49	
37	
34	
43	
46	
58	
53	
41	
51	
62	
36	
43	
46	
44	
43	
52	
39	
56	
46	
45	
47	
47	
44	
47	
41	
30	
58	
54	
41	
53	
39	
58	
36	
44	
51	
53	
46	
54	
45	
48	
54	
44	
53	
33	
43	
43	
42	
56	
53	
46	
54	
44	
57	
43	
44	
64	
51	
53	
52	
44	
51	
38	
49	
45	
51	
37	
48	
47	
45	
41	
43	
51	
39	
38	
42	
39	
42	
50	
38	
59	
37	
47	
47	
30	
40	
51	
53	
43	
43	
35	
43	
54	
54	
48	
42	
47	
45	
43	
42	
47	
52	
39	
48	
43	
36	
51	
46	
37	
46	
42	
43	
50	
43	
46	
30	
43	
46	
42	
62	
43	
47	
49	
57	
50	
43	
40	
43	
44	
37	
50	
53	
40	
37	
47	
40	
31	
47	
49	
53	
38	
50	
45	
47	
52	
40	
42	
48	
35	
57	
45	
43	
41	
47	
41	
52	
43	
39	
39	
55	
43	
45	
45	
40	
56	
53	
37	
45	
42	
60	
43	
48	
51	
39	
35	
50	
45	
39	
44	
40	
36	
49	
51	
34	
42	
59	
49	
51	
47	
41	
46	
44	
55	
52	
45	
48	
44	
44	
41	
44	
40	
34	
40	
31	
53	
31	
48	
43	
45	
34	
44	
42	
48	
40	
37	
44	
26	
32	
39	
49	
36	
52	
49	
60	
44	
39	
40	
46	
55	
39	
51	
43	
55	
41	
39	
44	
42	
45	
46	
36	
46	
50	
34	
44	
56	
57	
37	
46	
49	
50	
31	
53	
51	
51	
35	
45	
37	
43	
49	
42	
52	
49	
37	
47	
41	
43	
43	
48	
45	
40	
36	
42	
42	
41	
34	
33	
41	
57	
37	
40	
46	
58	
41	
49	
64	
51	
51	
41	
42	
48	
33	
33	
50	
48	
48	
47	
38	
52	
38	
38	
45	
48	
36	
38	
32	
37	
52	
45	
41	
45	
39	
34	
35	
57	
44	
40	
37	
37	
38	
41	
43	
38	
28	
41	
43	
57	
32	
43	
36	
45	
43	
50	
39	
43	
30	
38	
43	
36	
39	
42	
38	
43	
33	
45	
43	
42	
50	
39	
44	
46	
50	
32	
32	
47	
47	
46	
46	
35	
36	
40	
54	
47	
34	
35	
34	
31	
50	
42	
52	
34	
47	
46	
34	
51	
44	
47	
39	
55	
41	
44	
32	
35	
35	
43	
35	
35	
52	
51	
45	
39	
40	
57	
39	
48	
36	
50	
40	
44	
52	
37	
34	
52	
50	
42	
45	
39	
49	
44	
39	
33	
43	
43	
49	
56	
45	
35	
41	
34	
30	
39	
35	
44	
42	
36	
44	
49	
30	
33	
36	
48	
42	
42	
50	
42	
39	
47	
48	
33	
32	
50	
37	
32	
41	
44	
47	
41	
46	
42	
37	
47	
36	
40	
37	
34	
42	
53	
35	
28	
33	
35	
39	
36	
43	
49	
43	
35	
38	
37	
36	
46	
38	
38	
42	
45	
40	
33	
31	
47	
29	
52	
36	
50	
43	
45	
34	
33	
35	
39	
42	
35	
32	
49	
42	
49	
42	
38	
35	
51	
35	
41	
51	
35	
38	
41	
34	
34	
46	
37	
55	
37	
29	
42	
42	
37	
46	
37	
42	
43	
51	
40	
39	
37	
34	
37	
30	
35	
34	
19	
38	
34	
39	
48	
36	
37	
41	
33	
43	
39	
29	
32	
27	
34	
33	
29	
36	
45	
30	
35	
44	
39	
37	
27	
34	
37	
26	
35	
33	
24	
36	
27	
48	
32	
46	
39	
31	
50	
41	
48	
44	
37	
38	
37	
48	
25	
28	
44	
32	
39	
35	
31	
41	
40	
27	
42	
41	
31	
46	
41	
43	
34	
38	
38	
38	
32	
29	
37	
42	
26	
33	
45	
29	
30	
29	
37	
34	
30	
37	
36	
32	
34	
39	
40	
52	
34	
42	
45	
42	
28	
44	
42	
23	
37	
39	
39	
43	
44	
36	
35	
41	
44	
36	
34	
40	
42	
36	
32	
34	
42	
30	
44	
52	
31	
28	
57	
36	
31	
38	
26	
39	
38	
51	
31	
51	
55	
34	
43	
28	
35	
40	
33	
37	
40	
40	
50	
28	
29	
32	
32	
34	
36	
34	
47	
30	
38	
45	
40	
25	
26	
34	
27	
52	
38	
50	
28	
51	
45	
44	
44	
45	
38	
35	
38	
42	
38	
32	
46	
32	
37	
39	
39	
35	
31	
49	
33	
31	
36	
37	
34	
24	
26	
37	
37	
27	
47	
39	
41	
40	
37	
31	
40	
38	
31	
38	
29	
41	
35	
34	
29	
35	
38	
49	
38	
38	
33	
44	
39	
41	
28	
37	
34	
33	
49	
38	
38	
31	
36	
36	
34	
32	
29	
39	
32	
32	
28	
37	
48	
38	
34	
31	
44	
31	
21	
30	
40	
34	
41	
32	
38	
24	
34	
30	
36	
42	
31	
32	
43	
40	
27	
36	
32	
51	
38	
37	
35	
31	
39	
48	
29	
33	
29	
25	
36	
37	
42	
39	
35	
46	
35	
33	
34	
38	
46	
31	
29	
29	
39	
45	
43	
32	
36	
29	
29	
28	
34	
34	
27	
29	
37	
28	
35	
28	
32	
36	
33	
37	
36	
27	
36	
39	
46	
34	
36	
24	
40	
26	
29	
36	
36	
32	
23	
34	
32	
31	
39	
30	
24	
40	
45	
44	
32	
30	
34	
28	
39	
28	
43	
42	
40	
22	
37	
31	
25	
38	
36	
34	
27	
39	
35	
30	
23	
34	
35	
43	
28	
35	
38	
32	
40	
36	
33	
31	
38	
27	
30	
36	
36	
37	
27	
33	
29	
36	
31	
31	
28	
28	
33	
45	
48	
36	
27	
36	
24	
27	
30	
34	
39	
28	
30	
38	
27	
39	
27	
42	
49	
38	
37	
42	
32	
29	
39	
43	
26	
35	
29	
31	
25	
29	
31	
35	
38	
37	
32	
31	
39	
30	
36	
32	
38	
32	
30	
38	
31	
31	
30	
41	
28	
34	
36	
32	
31	
37	
36	
34	
41	
52	
27	
39	
33	
29	
31	
30	
30	
31	
35	
34	
32	
34	
32	
30	
29	
24	
30	
22	
31	
33	
23	
31	
34	
28	
35	
32	
33	
26	
35	
31	
36	
29	
37	
31	
43	
35	
25	
38	
35	
37	
31	
27	
41	
35	
40	
22	
39	
24	
37	
32	
34	
32	
34	
42	
29	
33	
37	
38	
27	
46	
25	
27	
38	
34	
27	
25	
22	
25	
33	
42	
32	
29	
30	
24	
36	
33	
24	
29	
32	
26	
31	
31	
42	
35	
26	
27	
31	
41	
36	
35	
34	
34	
35	
38	
40	
26	
30	
28	
32	
29	
39	
31	
28	
36	
23	
43	
30	
30	
28	
35	
33	
25	
26	
48	
31	
38	
35	
38	
42	
28	
32	
20	
31	
32	
30	
32	
26	
40	
34	
30	
37	
33	
36	
31	
26	
36	
32	
27	
37	
40	
31	
21	
31	
40	
34	
38	
30	
44	
27	
35	
32	
26	
27	
31	
34	
33	
31	
33	
29	
24	
25	
37	
33	
32	
29	
38	
31	
36	
30	
25	
29	
36	
21	
35	
21	
29	
34	
31	
30	
37	
28	
35	
26	
20	
41	
33	
37	
36	
27	
43	
30	
33	
37	
32	
24	
31	
31	
34	
29	
34	
35	
33	
33	
27	
32	
23	
37	
34	
32	
33	
34	
34	
28	
29	
38	
35	
37	
30	
37	
29	
29	
37	
29	
23	
38	
31	
38	
26	
31	
32	
38	
21	
38	
38	
27	
42	
31	
21	
28	
36	
35	
24	
27	
33	
39	
30	
37	
38	
29	
28	
37	
29	
26	
33	
31	
30	
30	
29	
36	
34	
35	
28	
29	
31	
29	
31	
35	
29	
30	
37	
27	
33	
30	
40	
29	
25	
26	
32	
20	
43	
23	
29	
27	
25	
17	
31	
30	
25	
31	
23	
29	
26	
24	
31	
27	
31	
36	
34	
38	
23	
27	
39	
44	
36	
38	
28	
25	
29	
24	
33	
26	
33	
29	
29	
23	
32	
33	
29	
35	
28	
19	
30	
30	
30	
30	
37	
31	
31	
23	
37	
35	
24	
31	
36	
24	
34	
35	
27	
34	
32	
23	
38	
32	
22	
27	
39	
35	
26	
33	
34	
33	
37	
32	
29	
24	
24	
35	
25	
30	
39	
21	
30	
24	
24	
25	
31	
27	
30	
33	
21	
26	
24	
31	
25	
32	
36	
18	
25	
34	
31	
30	
31	
41	
29	
33	
26	
28	
25	
33	
26	
29	
35	
39	
34	
37	
29	
37	
29	
27	
27	
29	
28	
22	
31	
25	
27	
25	
23	
28	
40	
29	
32	
30	
29	
32	
30	
32	
28	
25	
26	
21	
33	
32	
35	
35	
31	
24	
22	
18	
31	
28	
35	
17	
26	
26	
30	
23	
36	
37	
22	
40	
31	
29	
25	
23	
33	
40	
33	
33	
32	
25	
29	
26	
21	
24	
28	
22	
32	
29	
28	
24	
20	
30	
35	
24	
29	
37	
28	
30	
28	
27	
27	
28	
25	
25	
32	
29	
41	
36	
36	
28	
32	
25	
48	
23	
30	
28	
15	
29	
35	
19	
26	
28	
24	
21	
22	
28	
32	
36	
36	
28	
32	
27	
29	
37	
33	
24	
28	
28	
24	
29	
35	
31	
34	
23	
20	
28	
34	
19	
24	
26	
26	
31	
27	
30	
25	
33	
34	
24	
24	
36	
31	
27	
23	
27	
29	
21	
36	
28	
30	
26	
32	
26	
33	
24	
33	
25	
31	
34	
21	
34	
27	
20	
13	
36	
17	
25	
32	
21	
30	
28	
30	
25	
35	
24	
26	
30	
29	
22	
38	
32	
34	
29	
20	
33	
29	
24	
31	
27	
25	
25	
33	
32	
24	
29	
33	
23	
28	
33	
27	
31	
27	
24	
25	
24	
28	
41	
22	
35	
24	
30	
33	
25	
34	
22	
26	
26	
30	
22	
34	
19	
36	
28	
29	
25	
28	
22	
23	
26	
16	
24	
39	
23	
32	
32	
23	
25	
25	
32	
19	
24	
22	
30	
32	
33	
25	
25	
25	
35	
31	
20	
30	
29	
17	
41	
26	
29	
32	
27	
31	
30	
24	
29	
23	
34	
29	
30	
32	
31	
29	
28	
34	
34	
19	
27	
14	
42	
23	
27	
28	
20	
32	
31	
33	
28	
22	
20	
24	
20	
26	
34	
34	
28	
22	
33	
20	
20	
17	
26	
25	
23	
35	
30	
28	
20	
27	
36	
31	
33	
30	
32	
16	
34	
23	
32	
28	
29	
32	
23	
33	
31	
25	
29	
31	
37	
28	
35	
36	
24	
18	
25	
14	
28	
39	
27	
24	
23	
33	
21	
26	
33	
22	
17	
17	
19	
16	
23	
20	
21	
28	
31	
19	
32	
21	
14	
25	
30	
26	
38	
27	
27	
25	
27	
30	
20	
19	
25	
28	
30	
29	
27	
24	
35	
33	
20	
32	
29	
30	
30	
20	
41	
28	
18	
26	
25	
33	
26	
23	
24	
24	
19	
30	
24	
22	
25	
40	
37	
22	
34	
18	
24	
24	
34	
26	
31	
24	
29	
22	
33	
28	
22	
24	
32	
24	
25	
28	
29	
27	
25	
19	
30	
32	
25	
33	
29	
23	
26	
22	
19	
26	
25	
32	
16	
16	
25	
29	
27	
32	
22	
29	
28	
28	
14	
27	
32	
25	
29	
34	
25	
23	
25	
14	
19	
26	
30	
27	
31	
28	
30	
18	
25	
22	
23	
41	
25	
18	
26	
20	
26	
23	
22	
29	
25	
28	
24	
34	
20	
22	
20	
30	
27	
28	
24	
25	
26	
29	
30	
21	
22	
33	
26	
18	
36	
26	
27	
26	
24	
34	
23	
30	
18	
23	
20	
30	
17	
29	
25	
23	
22	
31	
28	
26	
23	
35	
24	
30	
28	
22	
22	
17	
23	
18	
22	
27	
17	
38	
21	
26	
22	
31	
27	
32	
25	
18	
29	
26	
30	
30	
19	
24	
26	
29	
22	
16	
18	
29	
30	
16	
33	
19	
26	
24	
28	
26	
26	
28	
28	
28	
31	
25	
27	
29	
23	
20	
18	
20	
32	
27	
26	
31	
26	
34	
22	
23	
30	
29	
24	
29	
28	
22	
17	
26	
35	
27	
26	
12	
25	
22	
27	
21	
24	
21	
32	
26	
21	
18	
26	
25	
24	
28	
27	
29	
17	
29	
18	
34	
26	
26	
30	
33	
25	
24	
33	
17	
20	
24	
21	
24	
18	
32	
24	
16	
26	
19	
27	
27	
32	
27	
27	
22	
30	
28	
23	
23	
21	
23	
22	
21	
20	
22	
19	
21	
21	
32	
22	
19	
22	
25	
20	
22	
21	
22	
30	
23	
32	
25	
24	
23	
21	
26	
11	
20	
19	
36	
31	
30	
23	
21	
27	
23	
21	
24	
24	
19	
32	
23	
36	
24	
27	
28	
22	
26	
28	
21	
25	
28	
26	
19	
21	
15	
24	
16	
31	
20	
25	
31	
30	
23	
28	
26	
33	
22	
19	
23	
30	
26	
30	
25	
31	
18	
18	
25	
15	
28	
30	
21	
16	
23	
32	
25	
21	
20	
35	
26	
21	
19	
26	
23	
18	
27	
20	
20	
15	
28	
21	
20	
24	
23	
28	
20	
17	
19	
19	
31	
19	
23	
22	
32	
17	
16	
22	
24	
22	
31	
29	
14	
20	
23	
30	
22	
22	
26	
19	
27	
13	
30	
28	
20	
31	
24	
27	
27	
29	
25	
27	
32	
18	
32	
15	
27	
24	
14	
26	
16	
28	
23	
20	
22	
24	
25	
24	
26	
30	
11	
19	
30	
24	
13	
14	
22	
26	
21	
28	
25	
32	
15	
21	
30	
20	
35	
11	
21	
17	
29	
23	
27	
20	
24	
25	
18	
30	
27	
22	
23	
26	
23	
31	
27	
27	
23	
25	
21	
21	
22	
22	
28	
24	
22	
31	
22	
16	
18	
24	
27	
26	
25	
22	
12	
17	
25	
24	
17	
18	
29	
24	
23	
14	
22	
16	
25	
16	
20	
20	
27	
23	
19	
31	
22	
21	
22	
19	
21	
21	
24	
27	
30	
29	
30	
21	
24	
24	
29	
14	
26	
21	
26	
22	
19	
21	
18	
27	
27	
27	
19	
27	
27	
21	
23	
28	
22	
27	
24	
26	
15	
21	
18	
16	
23	
19	
19	
16	
24	
24	
33	
18	
26	
23	
20	
15	
20	
18	
18	
15	
27	
25	
24	
18	
28	
19	
25	
18	
27	
26	
18	
24	
22	
20	
17	
23	
33	
23	
26	
25	
19	
27	
19	
19	
17	
27	
27	
18	
18	
32	
28	
22	
23	
23	
23	
16	
21	
20	
20	
23	
15	
27	
15	
28	
24	
17	
25	
28	
15	
21	
29	
20	
21	
18	
24	
23	
33	
27	
25	
17	
10	
23	
26	
21	
31	
18	
19	
15	
21	
21	
24	
16	
25	
22	
26	
30	
15	
23	
28	
20	
25	
25	
24	
21	
17	
20	
27	
25	
22	
26	
16	
19	
21	
22	
14	
28	
24	
20	
20	
21	
23	
30	
17	
19	
21	
17	
28	
30	
13	
21	
25	
12	
19	
28	
21	
27	
22	
16	
7	
17	
28	
21	
26	
26	
24	
12	
30	
23	
17	
19	
20	
24	
29	
33	
22	
31	
23	
27	
19	
24	
22	
24	
21	
22	
17	
22	
23	
11	
27	
18	
24	
19	
19	
18	
16	
20	
23	
20	
20	
22	
15	
25	
14	
27	
27	
27	
20	
32	
26	
22	
19	
20	
30	
11	
22	
18	
13	
32	
20	
28	
26	
15	
23	
19	
22	
26	
25	
20	
28	
25	
31	
21	
22	
20	
21	
20	
19	
23	
41	
23	
24	
20	
21	
28	
14	
20	
21	
22	
19	
22	
23	
23	
18	
14	
24	
15	
25	
22	
16	
21	
16	
25	
20	
16	
24	
16	
24	
22	
23	
28	
20	
22	
10	
18	
22	
15	
22	
19	
17	
19	
23	
21	
13	
23	
18	
13	
24	
23	
20	
19	
20	
30	
25	
26	
16	
20	
12	
14	
21	
18	
23	
26	
22	
16	
25	
21	
17	
23	
19	
28	
20	
22	
24	
29	
24	
25	
24	
17	
23	
32	
14	
14	
15	
23	
21	
18	
21	
20	
34	
21	
23	
13	
22	
34	
20	
27	
20	
18	
25	
20	
19	
25	
24	
17	
20	
16	
25	
21	
23	
27	
20	
26	
19	
26	
22	
16	
17	
17	
17	
19	
23	
19	
21	
23	
22	
23	
25	
21	
29	
26	
17	
24	
25	
20	
29	
19	
18	
19	
18	
19	
20	
16	
21	
23	
22	
21	
23	
24	
12	
21	
29	
18	
15	
17	
24	
25	
21	
23	
20	
21	
21	
30	
27	
26	
18	
22	
18	
24	
20	
20	
13	
17	
19	
15	
22	
23	
17	
20	
14	
17	
18	
23	
19	
22	
25	
22	
17	
23	
12	
17	
19	
20	
30	
19	
18	
21	
17	
16	
17	
20	
21	
23	
18	
19	
21	
23	
24	
23	
13	
23	
25	
20	
18	
23	
21	
24	
26	
17	
17	
24	
29	
14	
25	
24	
15	
22	
20	
17	
18	
25	
18	
20	
13	
17	
23	
32	
22	
18	
25	
22	
20	
19	
21	
25	
17	
14	
20	
21	
16	
14	
19	
20	
20	
14	
19	
17	
22	
28	
19	
22	
21	
14	
16	
21	
21	
18	
29	
19	
22	
24	
21	
20	
19	
27	
16	
20	
22	
15	
17	
22	
21	
17	
17	
19	
17	
22	
17	
26	
19	
19	
20	
18	
18	
24	
16	
24	
22	
17	
18	
22	
31	
19	
10	
19	
20	
12	
14	
20	
19	
20	
20	
20	
20	
23	
19	
21	
12	
22	
18	
16	
13	
22	
8	
20	
29	
18	
15	
19	
18	
20	
18	
22	
26	
16	
20	
15	
23	
22	
19	
26	
23	
23	
25	
21	
25	
18	
14	
18	
19	
19	
25	
18	
19	
17	
21	
26	
23	
19	
17	
24	
21	
25	
16	
11	
26	
17	
24	
31	
23	
21	
14	
16	
13	
15	
21	
12	
22	
20	
26	
21	
20	
22	
17	
17	
16	
17	
21	
23	
16	
18	
24	
22	
27	
25	
20	
26	
13	
24	
20	
18	
23	
14	
18	
17	
17	
19	
19	
24	
16	
25	
19	
26	
14	
17	
17	
21	
18	
15	
24	
18	
18	
16	
23	
18	
25	
20	
21	
15	
14	
15	
19	
18	
16	
20	
13	
18	
24	
20	
28	
17	
23	
16	
23	
18	
18	
16	
20	
22	
17	
25	
17	
13	
23	
19	
20	
12	
26	
15	
23	
16	
13	
22	
21	
18	
18	
25	
21	
11	
19	
17	
28	
20	
32	
19	
20	
29	
25	
19	
15	
27	
13	
22	
10	
15	
17	
14	
16	
16	
17	
13	
18	
17	
26	
15	
21	
19	
17	
15	
19	
12	
15	
12	
17	
17	
17	
18	
16	
17	
17	
24	
18	
15	
19	
17	
23	
18	
18	
26	
20	
12	
18	
19	
22	
23	
24	
18	
26	
19	
13	
16	
19	
18	
21	
19	
20	
20	
20	
14	
23	
21	
16	
26	
18	
12	
26	
21	
18	
18	
10	
17	
18	
19	
25	
20	
14	
15	
13	
14	
19	
21	
24	
23	
16	
10	
27	
18	
16	
18	
25	
17	
15	
27	
19	
26	
14	
13	
18	
27	
16	
24	
16	
13	
22	
18	
22	
15	
24	
20	
23	
13	
13	
19	
19	
10	
15	
19	
18	
16	
19	
17	
19	
19	
22	
18	
17	
16	
23	
23	
19	
19	
23	
9	
15	
17	
14	
25	
23	
17	
21	
18	
10	
29	
22	
14	
17	
13	
17	
21	
23	
27	
21	
14	
9	
21	
27	
15	
19	
18	
28	
17	
22	
15	
22	
31	
19	
25	
12	
9	
21	
16	
18	
23	
18	
22	
11	
23	
19	
21	
19	
20	
20	
18	
21	
20	
19	
15	
22	
13	
25	
17	
19	
21	
14	
18	
15	
18	
22	
13	
32	
14	
24	
17	
11	
18	
18	
17	
15	
17	
15	
12	
22	
12	
21	
19	
18	
14	
25	
16	
38	
14	
28	
17	
18	
23	
17	
18	
19	
15	
20	
20	
14	
17	
14	
14	
22	
23	
27	
14	
19	
14	
28	
14	
12	
14	
21	
23	
19	
16	
23	
15	
29	
22	
17	
19	
21	
21	
19	
17	
20	
15	
20	
17	
13	
20	
27	
18	
17	
18	
21	
9	
20	
18	
23	
13	
23	
17	
21	
19	
15	
14	
16	
15	
13	
14	
16	
14	
20	
13	
12	
22	
8	
18	
18	
18	
20	
20	
14	
17	
16	
16	
15	
14	
13	
21	
14	
23	
18	
14	
30	
17	
23	
16	
15	
16	
22	
14	
14	
20	
17	
16	
26	
17	
15	
17	
21	
17	
20	
15	
23	
13	
16	
18	
12	
25	
20	
20	
22	
14	
14	
14	
20	
18	
13	
7	
17	
19	
15	
17	
17	
17	
19	
16	
21	
9	
17	
20	
19	
19	
17	
18	
17	
15	
23	
14	
14	
18	
14	
19	
20	
14	
17	
17	
12	
22	
19	
9	
17	
20	
18	
14	
7	
15	
24	
25	
12	
29	
24	
16	
16	
21	
17	
18	
14	
21	
15	
21	
15	
24	
12	
21	
23	
18	
6	
14	
19	
20	
24	
15	
20	
13	
14	
19	
12	
17	
12	
9	
10	
22	
14	
18	
16	
14	
11	
22	
22	
16	
14	
29	
9	
17	
17	
16	
21	
13	
15	
16	
22	
15	
16	
13	
13	
22	
17	
23	
16	
16	
23	
15	
18	
16	
15	
16	
16	
25	
14	
16	
13	
13	
20	
17	
16	
13	
17	
16	
19	
22	
15	
17	
10	
27	
22	
20	
18	
17	
13	
12	
19	
20	
19	
18	
18	
18	
18	
20	
20	
17	
21	
14	
19	
20	
18	
16	
20	
25	
13	
13	
14	
10	
15	
20	
20	
18	
12	
19	
15	
21	
19	
20	
21	
13	
16	
11	
15	
19	
24	
13	
17	
13	
16	
13	
14	
17	
12	
21	
19	
22	
18	
17	
13	
25	
13	
21	
17	
12	
19	
15	
19	
15	
17	
14	
19	
17	
16	
14	
17	
18	
13	
15	
19	
17	
13	
20	
24	
28	
15	
27	
13	
15	
19	
13	
15	
16	
21	
12	
19	
19	
9	
18	
11	
14	
17	
14	
9	
10	
15	
23	
16	
25	
16	
18	
13	
19	
19	
14	
13	
16	
13	
21	
16	
19	
15	
22	
20	
12	
18	
16	
16	
22	
15	
13	
19	
14	
12	
17	
13	
14	
13	
15	
14	
11	
21	
13	
11	
20	
13	
20	
15	
21	
17	
21	
16	
10	
12	
15	
17	
16	
16	
18	
18	
15	
14	
13	
19	
18	
17	
17	
21	
15	
24	
16	
21	
18	
12	
13	
18	
18	
16	
9	
19	
22	
22	
17	
23	
19	
17	
19	
16	
12	
12	
12	
17	
12	
18	
11	
15	
16	
15	
22	
21	
14	
22	
17	
15	
20	
18	
18	
17	
14	
13	
17	
11	
25	
18	
16	
15	
21	
9	
11	
9	
12	
24	
13	
19	
18	
14	
14	
25	
20	
14	
17	
18	
14	
16	
23	
19	
19	
18	
13	
22	
25	
16	
9	
16	
18	
10	
13	
14	
19	
26	
16	
11	
17	
16	
17	
19	
14	
10	
17	
20	
18	
17	
13	
17	
19	
14	
14	
17	
22	
19	
17	
16	
17	
25	
16	
25	
7	
16	
17	
25	
21	
20	
22	
17	
9	
20	
11	
15	
16	
14	
16	
16	
19	
16	
25	
18	
16	
19	
12	
13	
10	
11	
18	
17	
12	
21	
11	
22	
22	
20	
12	
12	
17	
13	
20	
18	
14	
16	
22	
15	
7	
10	
20	
17	
22	
20	
11	
16	
12	
13	
16	
14	
21	
20	
9	
13	
11	
16	
23	
12	
12	
11	
17	
13	
15	
19	
17	
23	
21	
19	
18	
15	
16	
15	
24	
25	
19	
16	
15	
14	
23	
18	
18	
10	
23	
17	
18	
12	
19	
19	
18	
7	
11	
15	
16	
22	
9	
13	
14	
20	
15	
14	
12	
12	
11	
15	
14	
14	
16	
16	
25	
24	
20	
14	
11	
13	
13	
12	
19	
16	
18	
19	
11	
16	
14	
14	
16	
14	
13	
23	
12	
23	
15	
12	
13	
11	
13	
13	
8	
11	
18	
13	
18	
16	
14	
20	
21	
26	
11	
15	
14	
13	
18	
14	
4	
18	
19	
14	
16	
19	
16	
19	
14	
12	
16	
10	
9	
22	
21	
18	
13	
13	
12	
14	
16	
11	
14	
14	
13	
30	
17	
11	
22	
13	
15	
12	
13	
16	
16	
19	
14	
17	
12	
13	
15	
17	
14	
18	
16	
13	
19	
13	
8	
17	
13	
14	
10	
15	
16	
18	
16	
12	
13	
11	
15	
14	
17	
11	
19	
20	
19	
23	
12	
5	
21	
14	
13	
21	
15	
8	
16	
16	
14	
7	
20	
13	
13	
11	
13	
11	
16	
19	
17	
16	
20	
15	
15	
20	
21	
14	
15	
12	
14	
14	
20	
19	
11	
15	
14	
16	
15	
14	
9	
13	
18	
18	
13	
13	
20	
20	
18	
17	
11	
10	
19	
8	
21	
15	
15	
13	
11	
13	
16	
13	
22	
12	
21	
14	
16	
12	
15	
15	
13	
15	
9	
8	
14	
12	
15	
16	
11	
17	
13	
9	
18	
22	
13	
19	
13	
18	
17	
14	
13	
18	
13	
12	
17	
16	
18	
12	
13	
14	
14	
15	
16	
18	
16	
15	
11	
13	
17	
16	
18	
16	
11	
16	
12	
18	
15	
20	
11	
14	
17	
13	
15	
17	
11	
12	
16	
18	
12	
11	
11	
19	
18	
20	
12	
9	
14	
18	
17	
19	
11	
11	
11	
14	
19	
15	
10	
15	
15	
20	
21	
20	
15	
10	
16	
18	
18	
17	
12	
10	
19	
10	
17	
12	
7	
12	
15	
12	
18	
15	
20	
14	
