#PicoHarp 300  Histogram Data			02/27/2023 02:19:04 PM
#channels per curve
3907
#display curve no.
0	
#memory block no.
0	
#ns/channel
0.1280	
#counts
11	
4	
9	
3	
10	
8	
5	
4	
9	
6	
9	
11	
10	
7	
4	
5	
6	
6	
10	
5	
10	
5	
5	
5	
6	
9	
4	
2	
7	
8	
7	
5	
4	
9	
5	
6	
7	
6	
8	
13	
11	
9	
10	
7	
12	
12	
5	
4	
8	
6	
6	
8	
7	
7	
3	
6	
7	
3	
7	
8	
4	
6	
5	
5	
10	
6	
6	
8	
9	
5	
3	
7	
5	
7	
7	
5	
5	
10	
3	
9	
5	
9	
12	
9	
11	
8	
8	
10	
6	
12	
6	
5	
4	
5	
5	
6	
7	
13	
2	
4	
8	
7	
9	
11	
9	
5	
8	
1	
6	
5	
2	
6	
6	
7	
7	
8	
9	
7	
7	
9	
7	
8	
8	
9	
7	
8	
6	
8	
10	
9	
6	
5	
2	
7	
4	
8	
2	
6	
6	
7	
7	
3	
6	
4	
9	
5	
4	
7	
8	
9	
13	
6	
7	
5	
9	
6	
9	
5	
6	
8	
7	
2	
5	
5	
5	
9	
5	
10	
7	
6	
7	
5	
6	
6	
9	
5	
7	
8	
12	
6	
7	
11	
13	
9	
9	
6	
5	
5	
2	
11	
5	
12	
6	
7	
8	
3	
11	
10	
8	
11	
5	
7	
9	
7	
5	
7	
10	
8	
10	
6	
7	
5	
6	
10	
3	
8	
7	
2	
8	
4	
3	
9	
7	
3	
6	
10	
8	
9	
9	
7	
7	
8	
8	
9	
10	
0	
5	
5	
6	
7	
7	
7	
9	
17	
29	
131	
222	
333	
379	
490	
500	
486	
496	
478	
486	
441	
454	
408	
401	
478	
386	
388	
374	
392	
401	
355	
382	
357	
363	
360	
364	
339	
306	
348	
318	
348	
333	
332	
295	
313	
288	
339	
301	
305	
313	
295	
308	
303	
290	
314	
270	
281	
278	
262	
298	
271	
274	
298	
267	
263	
296	
292	
276	
256	
303	
249	
258	
288	
267	
245	
265	
273	
231	
254	
238	
264	
244	
243	
251	
241	
244	
237	
244	
255	
231	
241	
256	
225	
211	
225	
232	
230	
233	
228	
241	
233	
213	
214	
211	
245	
249	
225	
217	
212	
172	
227	
239	
200	
249	
206	
196	
233	
194	
195	
209	
211	
225	
211	
230	
230	
191	
192	
205	
223	
204	
205	
197	
199	
184	
214	
207	
176	
204	
179	
215	
172	
209	
186	
157	
173	
182	
186	
195	
180	
195	
198	
184	
196	
178	
172	
196	
165	
173	
185	
163	
186	
160	
187	
190	
186	
169	
181	
164	
178	
157	
179	
170	
168	
159	
174	
189	
155	
165	
180	
176	
165	
182	
178	
165	
145	
179	
169	
167	
189	
164	
182	
170	
161	
192	
153	
159	
157	
160	
157	
147	
170	
171	
163	
174	
152	
142	
157	
147	
153	
132	
147	
149	
136	
144	
159	
140	
153	
170	
139	
161	
151	
131	
146	
156	
166	
147	
151	
138	
119	
126	
142	
137	
123	
140	
126	
141	
130	
147	
129	
133	
147	
133	
124	
133	
123	
126	
144	
119	
125	
114	
129	
122	
145	
126	
117	
145	
136	
148	
144	
130	
148	
126	
121	
123	
130	
119	
135	
125	
126	
116	
145	
118	
115	
133	
129	
110	
120	
122	
118	
109	
130	
118	
122	
115	
114	
133	
120	
114	
119	
115	
122	
133	
107	
105	
134	
100	
94	
128	
109	
110	
118	
114	
131	
111	
89	
110	
115	
120	
103	
109	
100	
115	
114	
108	
111	
106	
121	
108	
106	
107	
97	
128	
119	
126	
108	
86	
113	
117	
106	
93	
99	
104	
109	
118	
89	
93	
108	
99	
102	
99	
102	
88	
105	
98	
96	
108	
100	
114	
90	
108	
84	
109	
105	
108	
97	
109	
84	
93	
99	
105	
89	
89	
87	
101	
90	
101	
94	
78	
94	
102	
94	
113	
107	
77	
90	
93	
92	
108	
77	
86	
91	
101	
103	
101	
104	
84	
95	
112	
75	
93	
78	
83	
90	
95	
88	
94	
88	
79	
81	
95	
85	
97	
85	
88	
103	
89	
68	
85	
94	
88	
81	
78	
71	
87	
78	
82	
94	
72	
97	
90	
86	
94	
76	
92	
85	
97	
69	
88	
69	
95	
71	
86	
92	
71	
81	
90	
73	
83	
98	
72	
66	
96	
78	
88	
60	
78	
85	
82	
79	
89	
83	
82	
83	
80	
74	
67	
91	
113	
82	
83	
70	
74	
79	
70	
63	
72	
74	
79	
83	
69	
65	
77	
78	
72	
64	
65	
80	
76	
59	
76	
68	
63	
70	
55	
62	
73	
65	
73	
74	
90	
67	
72	
83	
70	
56	
60	
58	
86	
73	
62	
74	
68	
74	
60	
63	
78	
80	
71	
55	
79	
68	
88	
63	
85	
75	
91	
79	
73	
73	
81	
73	
66	
67	
67	
63	
66	
62	
58	
77	
62	
63	
67	
69	
59	
57	
66	
64	
67	
59	
57	
65	
70	
58	
60	
76	
84	
64	
72	
64	
67	
69	
57	
71	
72	
58	
54	
62	
68	
58	
54	
51	
58	
65	
57	
56	
68	
59	
54	
74	
54	
64	
68	
70	
83	
64	
68	
73	
58	
70	
67	
61	
53	
53	
70	
56	
72	
51	
46	
71	
53	
56	
52	
53	
78	
74	
56	
65	
58	
58	
64	
64	
57	
68	
52	
62	
66	
49	
60	
57	
74	
51	
52	
47	
61	
57	
54	
50	
59	
67	
55	
62	
49	
60	
65	
57	
49	
44	
62	
53	
49	
67	
58	
51	
58	
60	
60	
69	
62	
57	
53	
44	
45	
60	
58	
63	
38	
55	
59	
60	
55	
52	
34	
56	
53	
57	
58	
52	
53	
55	
53	
56	
49	
40	
61	
52	
57	
53	
45	
60	
46	
59	
57	
38	
44	
55	
60	
52	
49	
46	
49	
70	
51	
47	
55	
46	
62	
56	
43	
44	
44	
52	
51	
47	
49	
55	
48	
44	
53	
52	
44	
53	
59	
44	
49	
54	
53	
44	
39	
47	
44	
48	
38	
41	
44	
50	
53	
52	
49	
52	
57	
48	
45	
56	
38	
42	
39	
44	
49	
46	
48	
42	
40	
41	
44	
58	
45	
37	
49	
46	
55	
49	
45	
53	
48	
37	
49	
48	
40	
41	
40	
33	
54	
52	
35	
47	
52	
44	
44	
33	
56	
49	
48	
49	
44	
44	
50	
53	
41	
50	
34	
45	
42	
42	
52	
43	
39	
42	
33	
46	
44	
49	
44	
43	
54	
44	
45	
37	
42	
54	
36	
37	
50	
50	
41	
56	
36	
58	
48	
50	
35	
32	
43	
34	
33	
38	
44	
39	
48	
54	
45	
46	
49	
47	
39	
37	
38	
32	
38	
35	
46	
46	
40	
40	
38	
55	
48	
58	
46	
55	
51	
30	
39	
32	
47	
28	
38	
30	
18	
41	
45	
27	
41	
33	
35	
37	
34	
35	
33	
58	
29	
46	
39	
38	
33	
44	
25	
38	
38	
46	
50	
44	
45	
35	
28	
45	
38	
40	
41	
36	
39	
28	
31	
43	
34	
39	
31	
27	
34	
35	
31	
41	
34	
39	
31	
42	
38	
34	
42	
31	
26	
41	
37	
51	
30	
39	
40	
43	
35	
49	
37	
35	
44	
34	
30	
37	
37	
33	
42	
42	
32	
32	
39	
43	
41	
38	
36	
35	
38	
38	
42	
18	
38	
31	
46	
31	
31	
30	
39	
39	
38	
30	
28	
42	
31	
38	
33	
40	
30	
43	
32	
34	
41	
36	
28	
29	
32	
27	
34	
29	
39	
34	
39	
32	
34	
34	
35	
32	
28	
37	
29	
33	
34	
30	
35	
39	
43	
29	
25	
23	
37	
23	
36	
39	
36	
39	
45	
35	
30	
33	
40	
30	
31	
42	
33	
29	
29	
41	
26	
30	
32	
43	
44	
29	
28	
28	
25	
35	
35	
33	
37	
30	
34	
34	
35	
36	
33	
38	
21	
35	
34	
28	
28	
26	
32	
32	
24	
38	
23	
32	
35	
43	
37	
25	
26	
25	
37	
32	
26	
30	
29	
19	
37	
21	
27	
31	
24	
34	
34	
32	
37	
22	
41	
32	
30	
30	
23	
26	
27	
35	
30	
22	
38	
29	
24	
32	
38	
24	
36	
41	
22	
36	
26	
25	
34	
30	
24	
25	
23	
20	
24	
40	
37	
27	
21	
20	
33	
33	
26	
30	
20	
27	
34	
32	
24	
28	
32	
15	
22	
38	
29	
32	
22	
30	
26	
27	
26	
41	
34	
37	
34	
29	
16	
31	
26	
17	
30	
29	
30	
21	
24	
29	
22	
26	
30	
33	
33	
23	
35	
21	
24	
20	
20	
32	
30	
30	
29	
29	
32	
31	
29	
17	
24	
27	
19	
24	
21	
20	
30	
22	
27	
29	
20	
36	
22	
31	
24	
24	
29	
23	
28	
32	
28	
23	
25	
24	
24	
32	
25	
26	
31	
24	
26	
21	
31	
24	
22	
22	
21	
26	
28	
27	
30	
30	
27	
23	
25	
23	
19	
27	
20	
31	
19	
23	
31	
17	
29	
29	
25	
29	
27	
33	
21	
30	
26	
21	
27	
25	
23	
25	
22	
22	
20	
24	
29	
29	
21	
38	
18	
27	
28	
31	
24	
21	
27	
15	
17	
18	
24	
27	
23	
25	
21	
22	
22	
21	
24	
25	
17	
22	
21	
24	
31	
13	
26	
31	
22	
16	
22	
20	
35	
30	
20	
24	
18	
26	
24	
30	
24	
30	
22	
22	
29	
17	
22	
24	
23	
27	
29	
18	
21	
25	
23	
19	
31	
20	
17	
20	
16	
23	
26	
25	
28	
20	
19	
26	
20	
25	
26	
33	
28	
18	
23	
20	
29	
29	
15	
22	
32	
20	
35	
21	
25	
31	
29	
27	
26	
27	
21	
31	
18	
24	
26	
28	
34	
19	
28	
29	
21	
21	
18	
18	
12	
28	
18	
22	
19	
22	
25	
18	
16	
13	
31	
20	
26	
17	
17	
12	
33	
27	
25	
23	
21	
24	
20	
15	
16	
22	
18	
18	
21	
24	
25	
19	
18	
17	
18	
28	
19	
22	
25	
22	
15	
20	
16	
23	
21	
25	
15	
21	
29	
19	
21	
10	
14	
20	
23	
24	
28	
30	
27	
18	
19	
23	
33	
18	
16	
15	
14	
23	
17	
13	
16	
16	
27	
20	
24	
16	
18	
21	
16	
28	
25	
20	
34	
13	
30	
24	
23	
15	
30	
30	
19	
18	
24	
16	
20	
24	
16	
22	
17	
23	
28	
22	
18	
16	
13	
24	
27	
23	
24	
26	
15	
13	
25	
17	
18	
17	
22	
21	
20	
22	
23	
16	
29	
14	
23	
13	
14	
21	
18	
25	
22	
15	
13	
16	
16	
23	
23	
22	
12	
20	
22	
15	
25	
11	
20	
28	
30	
19	
17	
17	
24	
23	
17	
15	
18	
20	
14	
28	
15	
23	
20	
22	
21	
19	
22	
22	
19	
20	
22	
15	
11	
15	
13	
14	
24	
21	
17	
13	
25	
9	
18	
28	
18	
20	
25	
15	
17	
20	
16	
22	
24	
14	
22	
14	
23	
31	
16	
20	
17	
13	
24	
17	
18	
16	
17	
15	
14	
13	
24	
23	
22	
14	
27	
17	
22	
24	
20	
13	
16	
14	
13	
17	
22	
17	
28	
15	
17	
17	
24	
24	
15	
14	
11	
14	
20	
21	
17	
19	
12	
22	
10	
15	
16	
20	
18	
28	
19	
17	
20	
21	
16	
18	
17	
11	
16	
22	
22	
20	
13	
21	
27	
16	
18	
16	
15	
21	
16	
18	
17	
20	
14	
16	
20	
18	
16	
15	
14	
15	
18	
24	
14	
22	
13	
15	
17	
19	
19	
15	
14	
12	
10	
19	
20	
13	
20	
20	
16	
16	
17	
20	
12	
16	
20	
13	
28	
19	
15	
12	
13	
21	
15	
17	
21	
18	
17	
21	
26	
24	
12	
11	
19	
19	
20	
17	
20	
20	
22	
18	
19	
20	
18	
19	
11	
18	
17	
27	
19	
23	
15	
18	
14	
27	
12	
22	
10	
14	
20	
17	
18	
18	
13	
10	
20	
17	
16	
18	
11	
20	
24	
13	
19	
17	
18	
14	
18	
20	
16	
15	
14	
22	
19	
21	
26	
8	
14	
15	
20	
9	
15	
21	
14	
19	
22	
14	
14	
12	
20	
20	
12	
11	
14	
19	
18	
12	
19	
8	
17	
19	
14	
14	
11	
21	
14	
19	
16	
15	
20	
12	
6	
14	
9	
15	
19	
14	
16	
17	
6	
15	
19	
20	
16	
18	
17	
15	
16	
14	
12	
15	
20	
17	
18	
13	
16	
11	
19	
12	
13	
11	
18	
11	
19	
15	
9	
13	
18	
18	
18	
18	
7	
11	
14	
12	
11	
11	
16	
12	
21	
11	
13	
11	
16	
18	
20	
11	
11	
14	
12	
13	
17	
15	
19	
18	
12	
17	
20	
16	
8	
11	
12	
16	
20	
11	
11	
22	
19	
20	
13	
12	
17	
19	
26	
14	
11	
10	
19	
16	
15	
13	
10	
15	
13	
17	
16	
19	
19	
11	
19	
16	
12	
16	
14	
14	
13	
11	
17	
15	
15	
13	
16	
20	
11	
19	
8	
20	
10	
18	
12	
21	
12	
18	
18	
16	
15	
18	
13	
11	
12	
14	
18	
10	
19	
13	
14	
16	
16	
15	
11	
14	
15	
11	
20	
18	
19	
11	
13	
16	
15	
15	
14	
13	
14	
16	
11	
11	
16	
15	
7	
11	
12	
14	
15	
18	
16	
12	
11	
16	
11	
9	
14	
18	
12	
10	
11	
20	
19	
19	
14	
17	
13	
9	
16	
11	
15	
16	
13	
11	
8	
20	
14	
15	
12	
10	
13	
11	
12	
9	
20	
14	
13	
11	
12	
13	
15	
7	
22	
19	
15	
20	
18	
11	
10	
16	
12	
17	
14	
9	
15	
14	
14	
21	
13	
18	
15	
13	
9	
12	
8	
11	
17	
8	
7	
14	
12	
8	
16	
16	
11	
25	
16	
12	
15	
15	
14	
15	
12	
13	
14	
14	
14	
15	
13	
15	
11	
16	
10	
15	
13	
9	
13	
10	
11	
13	
9	
15	
21	
16	
12	
9	
8	
16	
18	
10	
16	
12	
14	
7	
17	
9	
14	
10	
15	
15	
15	
14	
10	
14	
14	
15	
8	
14	
11	
7	
14	
16	
15	
14	
14	
7	
11	
11	
16	
13	
9	
9	
6	
13	
14	
16	
6	
6	
11	
7	
17	
9	
21	
10	
21	
11	
10	
4	
12	
19	
9	
10	
10	
10	
12	
17	
12	
7	
15	
11	
14	
18	
9	
9	
8	
12	
13	
18	
7	
15	
12	
13	
10	
21	
9	
7	
16	
7	
15	
9	
8	
16	
13	
14	
19	
16	
7	
14	
14	
14	
12	
11	
16	
15	
14	
9	
15	
16	
14	
9	
8	
10	
7	
22	
12	
16	
11	
7	
11	
15	
9	
12	
15	
15	
18	
9	
15	
11	
16	
9	
11	
14	
10	
13	
13	
11	
12	
11	
7	
13	
12	
10	
11	
7	
16	
12	
8	
8	
14	
10	
11	
11	
11	
9	
9	
18	
17	
13	
15	
16	
14	
18	
14	
12	
8	
17	
12	
14	
11	
13	
13	
10	
8	
12	
10	
9	
14	
15	
7	
8	
16	
11	
11	
8	
8	
7	
16	
16	
15	
9	
7	
8	
19	
11	
2	
8	
11	
8	
15	
9	
12	
10	
12	
8	
10	
11	
7	
7	
14	
10	
14	
10	
17	
17	
10	
9	
12	
9	
12	
14	
15	
8	
12	
9	
15	
13	
13	
11	
6	
7	
9	
6	
9	
8	
12	
14	
11	
15	
5	
13	
4	
16	
10	
10	
12	
13	
15	
11	
12	
10	
8	
12	
16	
5	
10	
10	
17	
18	
12	
12	
14	
11	
15	
14	
12	
13	
12	
9	
19	
8	
8	
7	
21	
8	
12	
11	
11	
13	
8	
9	
16	
8	
9	
9	
12	
13	
17	
15	
10	
14	
11	
9	
14	
15	
12	
13	
10	
16	
8	
11	
16	
12	
13	
14	
13	
7	
12	
12	
9	
10	
12	
8	
9	
3	
17	
11	
9	
8	
8	
15	
12	
13	
14	
13	
9	
15	
7	
11	
12	
16	
9	
11	
10	
12	
9	
14	
9	
11	
13	
14	
8	
6	
8	
14	
11	
11	
15	
12	
12	
13	
9	
8	
8	
12	
19	
11	
13	
15	
12	
7	
12	
12	
8	
11	
9	
14	
10	
14	
19	
12	
8	
10	
14	
13	
18	
7	
13	
8	
6	
9	
8	
10	
9	
7	
13	
13	
12	
14	
11	
7	
8	
10	
16	
8	
8	
3	
13	
14	
8	
9	
20	
13	
13	
8	
13	
16	
10	
10	
7	
18	
14	
16	
14	
12	
15	
10	
11	
13	
9	
8	
16	
17	
6	
23	
7	
13	
13	
11	
8	
6	
20	
8	
11	
12	
5	
11	
9	
16	
13	
10	
11	
13	
9	
8	
15	
15	
8	
10	
10	
8	
6	
11	
16	
8	
9	
14	
5	
8	
4	
13	
11	
14	
10	
9	
13	
10	
11	
18	
14	
14	
6	
9	
8	
4	
14	
7	
14	
12	
12	
12	
9	
15	
10	
12	
12	
15	
10	
11	
8	
10	
6	
9	
7	
15	
13	
12	
12	
11	
14	
9	
15	
9	
10	
12	
4	
6	
14	
14	
12	
12	
8	
7	
8	
7	
7	
7	
11	
5	
14	
12	
8	
13	
9	
9	
10	
9	
8	
8	
12	
11	
9	
8	
9	
9	
9	
9	
9	
8	
14	
11	
8	
13	
9	
8	
8	
14	
12	
7	
8	
22	
13	
8	
9	
10	
9	
10	
11	
14	
12	
15	
9	
13	
14	
13	
11	
9	
4	
9	
5	
11	
11	
15	
8	
7	
6	
12	
15	
12	
9	
10	
9	
5	
5	
12	
11	
9	
10	
13	
14	
9	
8	
5	
9	
15	
18	
19	
6	
8	
12	
9	
9	
12	
13	
8	
7	
9	
9	
16	
17	
5	
10	
6	
14	
9	
11	
9	
10	
14	
10	
9	
9	
8	
11	
9	
8	
5	
10	
7	
8	
4	
7	
7	
7	
14	
6	
12	
9	
9	
6	
9	
8	
6	
11	
8	
9	
13	
7	
7	
8	
12	
22	
7	
11	
7	
11	
11	
16	
7	
10	
7	
14	
10	
12	
8	
8	
11	
8	
8	
8	
12	
12	
6	
13	
15	
14	
8	
11	
9	
12	
12	
7	
6	
15	
12	
6	
12	
6	
10	
13	
9	
7	
8	
4	
12	
10	
10	
8	
10	
5	
8	
12	
10	
8	
4	
10	
13	
5	
11	
12	
8	
8	
8	
10	
19	
10	
6	
9	
14	
5	
9	
8	
16	
6	
7	
8	
11	
13	
6	
10	
6	
8	
13	
7	
5	
8	
9	
16	
3	
9	
6	
14	
5	
12	
14	
9	
6	
7	
7	
3	
13	
7	
6	
8	
14	
6	
10	
8	
6	
6	
11	
8	
5	
10	
11	
13	
11	
7	
10	
11	
11	
8	
13	
3	
9	
9	
5	
6	
8	
7	
7	
6	
9	
7	
13	
7	
8	
8	
10	
4	
7	
9	
10	
9	
8	
8	
8	
12	
8	
11	
10	
10	
11	
11	
11	
4	
7	
9	
10	
10	
4	
8	
12	
9	
7	
10	
8	
6	
11	
8	
9	
12	
11	
5	
7	
9	
13	
5	
6	
14	
10	
12	
7	
10	
10	
9	
10	
8	
7	
3	
15	
8	
11	
10	
11	
10	
12	
10	
4	
6	
13	
13	
5	
11	
12	
10	
9	
8	
7	
10	
7	
9	
4	
9	
5	
13	
8	
5	
8	
5	
8	
7	
7	
9	
16	
7	
11	
6	
7	
5	
10	
8	
6	
3	
9	
9	
12	
4	
7	
10	
17	
6	
6	
7	
10	
15	
9	
4	
8	
11	
7	
6	
12	
6	
11	
10	
8	
10	
12	
7	
5	
14	
9	
6	
7	
8	
5	
8	
11	
8	
13	
7	
8	
13	
8	
7	
6	
11	
10	
10	
6	
12	
10	
7	
4	
9	
6	
7	
8	
3	
12	
7	
10	
10	
4	
6	
13	
10	
8	
3	
15	
11	
8	
5	
6	
13	
8	
6	
5	
10	
7	
8	
9	
4	
8	
4	
2	
7	
4	
11	
7	
8	
6	
9	
12	
5	
3	
3	
6	
7	
14	
9	
2	
9	
6	
5	
7	
8	
5	
8	
7	
4	
13	
7	
8	
6	
6	
4	
6	
9	
8	
10	
11	
9	
8	
8	
8	
6	
12	
7	
10	
5	
11	
5	
8	
7	
5	
2	
5	
11	
11	
9	
13	
12	
11	
10	
6	
8	
8	
4	
6	
8	
6	
8	
6	
8	
5	
11	
9	
9	
9	
7	
7	
9	
7	
6	
12	
10	
13	
12	
8	
4	
16	
9	
8	
5	
7	
7	
10	
11	
6	
10	
11	
6	
10	
11	
9	
6	
7	
5	
11	
8	
14	
10	
11	
7	
8	
10	
13	
7	
3	
5	
10	
5	
9	
3	
7	
8	
14	
7	
8	
9	
5	
10	
9	
13	
8	
11	
6	
12	
7	
7	
5	
5	
13	
7	
8	
16	
6	
10	
7	
6	
11	
5	
10	
7	
7	
7	
9	
3	
8	
8	
8	
6	
7	
7	
14	
10	
9	
5	
10	
7	
4	
7	
5	
6	
7	
9	
6	
10	
5	
13	
6	
11	
11	
6	
10	
14	
9	
11	
8	
8	
7	
4	
4	
7	
11	
14	
11	
8	
7	
6	
10	
6	
7	
11	
5	
10	
5	
8	
5	
8	
6	
11	
5	
7	
7	
6	
4	
9	
4	
10	
10	
15	
6	
8	
12	
7	
11	
8	
8	
8	
8	
5	
6	
12	
7	
13	
17	
18	
7	
12	
11	
9	
7	
10	
8	
8	
9	
14	
5	
8	
9	
10	
9	
3	
7	
13	
6	
8	
4	
13	
3	
8	
7	
7	
9	
7	
6	
11	
3	
9	
7	
8	
7	
3	
10	
9	
9	
6	
11	
10	
3	
6	
1	
9	
11	
7	
10	
14	
10	
5	
5	
9	
6	
10	
7	
10	
4	
6	
7	
8	
8	
5	
7	
10	
7	
7	
8	
7	
4	
9	
9	
11	
7	
5	
8	
10	
10	
4	
6	
5	
13	
10	
7	
6	
7	
9	
4	
5	
4	
13	
9	
5	
10	
3	
11	
5	
8	
4	
12	
2	
8	
8	
5	
8	
6	
8	
9	
10	
5	
13	
1	
9	
6	
3	
4	
8	
9	
7	
7	
9	
13	
13	
4	
6	
8	
7	
9	
3	
4	
7	
8	
11	
7	
9	
6	
7	
3	
14	
11	
13	
5	
13	
10	
9	
8	
7	
5	
6	
7	
5	
5	
8	
7	
10	
14	
2	
6	
5	
6	
6	
11	
5	
8	
9	
8	
7	
5	
7	
9	
8	
9	
7	
7	
7	
9	
10	
8	
4	
7	
7	
6	
4	
4	
11	
12	
10	
4	
11	
9	
7	
7	
5	
7	
7	
10	
4	
10	
7	
9	
10	
8	
13	
9	
9	
7	
4	
5	
5	
7	
9	
13	
8	
5	
6	
8	
7	
7	
9	
5	
8	
10	
2	
6	
7	
3	
6	
9	
7	
10	
6	
3	
5	
5	
4	
7	
10	
11	
6	
3	
8	
7	
8	
5	
4	
11	
11	
12	
2	
7	
9	
6	
10	
7	
8	
6	
12	
4	
9	
5	
13	
9	
12	
9	
5	
4	
8	
6	
7	
14	
13	
8	
10	
4	
8	
11	
5	
7	
6	
7	
3	
4	
8	
6	
8	
9	
6	
2	
4	
8	
9	
9	
11	
5	
3	
7	
5	
4	
11	
5	
14	
4	
4	
8	
6	
11	
7	
8	
10	
9	
9	
5	
4	
6	
11	
9	
10	
8	
6	
7	
9	
4	
7	
6	
11	
4	
5	
6	
8	
3	
9	
8	
5	
8	
7	
12	
7	
6	
10	
4	
8	
8	
8	
9	
2	
9	
7	
10	
5	
9	
8	
10	
8	
7	
5	
9	
9	
13	
5	
4	
6	
7	
6	
11	
5	
10	
11	
11	
10	
7	
7	
9	
10	
12	
6	
4	
6	
10	
5	
9	
7	
6	
8	
11	
5	
3	
9	
8	
8	
6	
7	
5	
5	
12	
5	
7	
10	
2	
8	
6	
10	
5	
6	
6	
8	
3	
8	
3	
5	
10	
13	
13	
5	
6	
8	
6	
4	
8	
10	
5	
8	
6	
8	
8	
6	
13	
6	
7	
7	
5	
6	
1	
9	
10	
6	
8	
12	
4	
9	
3	
9	
10	
13	
8	
4	
4	
4	
8	
6	
8	
7	
9	
4	
5	
10	
2	
0	
0	
0	
0	
0	
0	
0	
0	
0	
0	
0	
0	
0	
0	
0	
0	
0	
0	
0	
0	
0	
0	
0	
0	
0	
0	
0	
0	
0	
0	
0	
0	
0	
