#PicoHarp 300  Histogram Data			02/27/2023 02:49:19 PM
#channels per curve
3907
#display curve no.
0	
#memory block no.
0	
#ns/channel
0.1280	
#counts
1	
2	
2	
3	
3	
2	
1	
0	
2	
1	
3	
4	
4	
4	
3	
4	
3	
2	
2	
3	
1	
1	
1	
0	
0	
1	
1	
1	
1	
4	
2	
5	
4	
0	
1	
4	
1	
4	
3	
4	
3	
1	
2	
3	
4	
1	
5	
5	
3	
2	
2	
2	
3	
0	
1	
1	
1	
4	
1	
0	
1	
8	
5	
5	
2	
3	
2	
1	
5	
2	
4	
1	
0	
5	
11	
3	
4	
1	
1	
2	
4	
4	
3	
2	
1	
1	
2	
2	
3	
2	
7	
4	
3	
2	
2	
3	
3	
2	
1	
4	
2	
0	
2	
5	
4	
2	
1	
3	
1	
5	
1	
1	
2	
2	
1	
5	
2	
4	
1	
0	
2	
2	
0	
3	
6	
2	
4	
1	
6	
2	
2	
3	
4	
1	
2	
2	
2	
6	
6	
6	
6	
5	
2	
1	
2	
2	
3	
0	
1	
3	
3	
0	
1	
2	
2	
3	
3	
3	
2	
1	
5	
3	
2	
2	
3	
1	
3	
3	
1	
2	
0	
0	
4	
5	
3	
3	
3	
1	
3	
3	
3	
4	
2	
1	
3	
1	
2	
2	
0	
4	
2	
0	
3	
1	
1	
2	
4	
3	
0	
1	
1	
1	
5	
7	
5	
3	
1	
0	
6	
3	
1	
5	
5	
6	
2	
4	
5	
4	
4	
3	
0	
0	
1	
4	
5	
3	
1	
3	
3	
1	
2	
2	
3	
3	
1	
0	
2	
2	
3	
4	
3	
4	
2	
4	
26	
84	
126	
172	
213	
248	
250	
238	
246	
244	
242	
232	
242	
196	
227	
214	
201	
220	
169	
188	
181	
157	
198	
163	
148	
147	
164	
147	
172	
153	
145	
148	
140	
147	
132	
143	
128	
162	
151	
145	
131	
164	
161	
137	
150	
122	
137	
127	
134	
158	
125	
139	
135	
108	
132	
115	
113	
133	
135	
109	
113	
117	
107	
127	
116	
111	
123	
122	
123	
108	
99	
103	
118	
107	
105	
104	
100	
99	
104	
120	
119	
99	
111	
87	
98	
93	
82	
102	
91	
90	
98	
107	
97	
102	
90	
97	
86	
99	
88	
102	
93	
99	
90	
83	
73	
102	
91	
95	
94	
88	
87	
96	
105	
98	
83	
93	
88	
99	
82	
80	
75	
89	
90	
89	
97	
79	
87	
71	
85	
77	
85	
71	
70	
87	
82	
67	
69	
86	
82	
79	
86	
75	
67	
70	
66	
78	
72	
79	
71	
75	
80	
71	
64	
81	
64	
78	
68	
79	
72	
52	
80	
71	
58	
55	
69	
77	
81	
63	
71	
61	
70	
76	
83	
68	
63	
68	
77	
66	
73	
65	
68	
67	
69	
58	
58	
67	
56	
75	
73	
38	
58	
61	
55	
44	
58	
47	
70	
59	
59	
65	
74	
66	
59	
57	
65	
51	
67	
50	
47	
46	
67	
59	
41	
58	
43	
39	
45	
63	
45	
52	
52	
52	
57	
46	
59	
54	
53	
56	
52	
45	
69	
69	
58	
56	
56	
40	
53	
48	
55	
39	
50	
58	
57	
53	
50	
40	
39	
47	
64	
56	
53	
51	
56	
54	
52	
42	
40	
48	
55	
62	
45	
31	
39	
43	
45	
45	
44	
35	
53	
53	
55	
44	
46	
44	
49	
43	
49	
41	
43	
51	
38	
48	
42	
43	
35	
42	
45	
37	
49	
31	
39	
37	
45	
45	
43	
39	
33	
31	
37	
54	
45	
46	
36	
40	
40	
35	
44	
36	
40	
36	
40	
46	
43	
34	
38	
44	
53	
46	
30	
32	
43	
44	
31	
40	
38	
36	
36	
26	
39	
41	
30	
40	
35	
36	
38	
37	
42	
32	
36	
41	
40	
34	
34	
39	
35	
21	
30	
40	
37	
39	
29	
38	
36	
36	
28	
39	
44	
25	
18	
39	
29	
37	
40	
36	
32	
36	
31	
39	
42	
32	
18	
41	
24	
28	
41	
34	
31	
24	
39	
24	
30	
26	
36	
34	
33	
38	
35	
25	
36	
26	
37	
38	
22	
30	
40	
40	
46	
25	
33	
27	
33	
37	
29	
32	
33	
30	
33	
21	
40	
33	
29	
33	
24	
38	
31	
30	
25	
35	
29	
24	
27	
20	
29	
24	
26	
35	
33	
28	
25	
37	
19	
22	
32	
30	
25	
27	
27	
39	
28	
27	
29	
28	
35	
30	
24	
35	
31	
32	
25	
33	
21	
30	
18	
29	
25	
28	
31	
21	
24	
27	
30	
23	
25	
19	
25	
27	
19	
34	
26	
26	
25	
13	
27	
29	
26	
21	
24	
20	
23	
17	
27	
18	
22	
20	
23	
18	
23	
26	
28	
22	
24	
28	
18	
24	
28	
18	
32	
27	
22	
27	
30	
19	
28	
24	
20	
34	
19	
23	
33	
23	
23	
24	
18	
23	
15	
23	
22	
20	
22	
26	
34	
19	
15	
38	
18	
29	
20	
26	
13	
21	
22	
22	
18	
22	
25	
25	
27	
27	
29	
23	
15	
18	
21	
16	
18	
18	
23	
18	
15	
23	
19	
21	
23	
21	
22	
24	
15	
27	
20	
19	
17	
21	
28	
15	
19	
20	
21	
22	
14	
23	
20	
25	
13	
29	
22	
13	
22	
13	
20	
25	
12	
25	
19	
17	
19	
13	
21	
19	
25	
19	
16	
24	
21	
21	
23	
15	
19	
16	
17	
18	
19	
18	
12	
22	
22	
22	
19	
20	
31	
21	
25	
28	
22	
19	
24	
16	
19	
19	
20	
24	
14	
17	
14	
17	
15	
13	
15	
15	
19	
25	
14	
20	
15	
14	
14	
24	
26	
15	
12	
19	
12	
21	
12	
12	
21	
17	
25	
23	
24	
19	
13	
13	
18	
16	
14	
15	
17	
14	
12	
18	
17	
19	
15	
21	
11	
23	
13	
16	
11	
18	
17	
11	
20	
22	
11	
18	
26	
13	
15	
15	
16	
15	
11	
13	
15	
15	
17	
16	
22	
14	
10	
15	
16	
15	
11	
14	
18	
27	
14	
10	
14	
17	
24	
15	
15	
6	
19	
23	
15	
13	
13	
15	
15	
5	
13	
24	
17	
8	
14	
18	
14	
15	
12	
11	
9	
12	
25	
8	
9	
11	
16	
20	
19	
16	
16	
13	
11	
11	
13	
15	
9	
15	
17	
13	
9	
13	
12	
8	
14	
15	
11	
15	
7	
18	
16	
12	
10	
5	
15	
8	
19	
15	
16	
10	
17	
11	
13	
8	
10	
12	
16	
11	
15	
12	
17	
9	
17	
12	
11	
13	
8	
8	
10	
11	
13	
8	
16	
16	
21	
18	
13	
11	
11	
17	
10	
10	
6	
8	
16	
16	
11	
20	
8	
7	
16	
10	
11	
10	
8	
12	
8	
16	
15	
8	
10	
14	
6	
11	
15	
9	
13	
9	
22	
9	
18	
11	
8	
12	
17	
20	
11	
9	
11	
17	
8	
5	
15	
10	
13	
8	
9	
11	
10	
10	
13	
16	
7	
13	
7	
9	
12	
10	
14	
9	
11	
8	
11	
10	
11	
15	
13	
12	
13	
10	
10	
17	
15	
11	
10	
12	
8	
12	
10	
12	
6	
11	
18	
10	
9	
16	
13	
10	
13	
16	
9	
13	
9	
12	
9	
13	
12	
8	
7	
17	
11	
12	
13	
8	
15	
8	
9	
10	
13	
12	
12	
10	
13	
11	
11	
4	
8	
12	
11	
11	
15	
12	
12	
10	
9	
8	
15	
6	
9	
14	
7	
10	
6	
9	
8	
9	
8	
7	
11	
14	
12	
8	
10	
13	
14	
9	
12	
9	
12	
5	
8	
11	
7	
8	
13	
15	
6	
6	
13	
5	
13	
10	
11	
12	
13	
15	
11	
8	
17	
10	
14	
15	
7	
5	
8	
12	
14	
9	
13	
7	
15	
11	
9	
8	
13	
5	
8	
12	
8	
11	
9	
7	
9	
8	
7	
6	
10	
10	
7	
11	
12	
6	
8	
7	
6	
8	
9	
8	
7	
10	
10	
10	
14	
8	
6	
10	
10	
8	
12	
3	
12	
6	
10	
11	
8	
10	
14	
13	
8	
11	
7	
3	
9	
10	
9	
7	
8	
7	
2	
8	
10	
10	
4	
13	
16	
14	
12	
5	
10	
5	
10	
13	
8	
10	
7	
5	
6	
15	
6	
9	
11	
7	
6	
10	
11	
7	
10	
9	
9	
9	
12	
6	
2	
8	
11	
3	
7	
9	
6	
9	
7	
8	
10	
9	
12	
7	
8	
7	
9	
9	
7	
7	
5	
9	
8	
10	
12	
5	
10	
6	
10	
12	
10	
8	
6	
12	
7	
11	
14	
9	
10	
4	
3	
9	
13	
10	
11	
8	
5	
6	
10	
6	
11	
16	
7	
3	
11	
4	
4	
2	
6	
6	
9	
13	
11	
7	
8	
10	
9	
10	
3	
3	
5	
4	
6	
10	
10	
6	
8	
7	
8	
8	
10	
17	
11	
9	
5	
8	
7	
6	
6	
12	
8	
6	
9	
9	
5	
7	
8	
6	
4	
6	
6	
8	
8	
10	
11	
8	
9	
3	
7	
4	
6	
9	
10	
5	
7	
6	
11	
6	
5	
7	
3	
5	
9	
7	
5	
5	
9	
6	
9	
7	
9	
8	
6	
12	
4	
8	
3	
7	
8	
8	
5	
8	
9	
13	
9	
10	
3	
10	
10	
9	
13	
8	
6	
9	
7	
11	
9	
6	
5	
8	
4	
7	
4	
2	
10	
6	
8	
7	
8	
6	
8	
4	
7	
10	
5	
11	
7	
7	
4	
9	
3	
3	
9	
7	
3	
4	
7	
11	
9	
7	
2	
5	
7	
5	
9	
4	
8	
10	
7	
9	
4	
7	
2	
6	
2	
13	
6	
7	
6	
6	
5	
7	
7	
3	
4	
3	
4	
9	
6	
4	
7	
10	
5	
6	
6	
11	
11	
8	
6	
4	
5	
5	
4	
10	
2	
7	
10	
7	
8	
5	
6	
5	
6	
10	
8	
9	
4	
10	
3	
7	
7	
4	
5	
7	
8	
7	
12	
9	
4	
6	
7	
3	
7	
5	
6	
9	
5	
6	
6	
6	
2	
5	
3	
9	
6	
5	
9	
4	
7	
6	
8	
3	
11	
5	
6	
5	
6	
5	
7	
11	
14	
6	
9	
2	
6	
4	
6	
8	
3	
4	
8	
9	
4	
5	
1	
5	
14	
6	
6	
5	
5	
4	
2	
5	
6	
9	
5	
6	
7	
2	
5	
3	
9	
3	
9	
3	
4	
5	
8	
8	
8	
2	
8	
9	
6	
3	
11	
5	
8	
8	
2	
7	
4	
4	
8	
5	
4	
7	
5	
7	
12	
8	
4	
0	
6	
13	
8	
5	
6	
5	
6	
3	
5	
4	
3	
7	
11	
5	
10	
4	
4	
6	
0	
7	
3	
2	
10	
9	
6	
4	
7	
1	
2	
5	
7	
5	
2	
7	
6	
4	
8	
4	
3	
6	
6	
8	
5	
5	
7	
10	
3	
3	
5	
3	
3	
7	
7	
2	
7	
6	
5	
3	
8	
4	
5	
9	
8	
6	
4	
6	
6	
4	
4	
8	
1	
5	
5	
6	
5	
1	
1	
2	
3	
4	
5	
7	
5	
8	
4	
2	
5	
9	
9	
4	
6	
4	
12	
4	
4	
4	
9	
7	
5	
6	
7	
7	
8	
2	
5	
7	
4	
5	
13	
6	
10	
7	
7	
2	
9	
7	
3	
2	
2	
4	
8	
7	
7	
4	
4	
3	
8	
2	
6	
10	
2	
1	
6	
8	
3	
6	
5	
4	
4	
1	
8	
7	
4	
5	
6	
5	
4	
6	
5	
4	
4	
3	
4	
8	
3	
9	
4	
7	
9	
9	
1	
7	
4	
7	
4	
4	
5	
3	
6	
6	
8	
2	
7	
4	
7	
4	
7	
2	
3	
1	
4	
7	
2	
4	
3	
2	
6	
2	
4	
9	
8	
2	
3	
2	
6	
9	
5	
1	
6	
3	
6	
6	
4	
6	
5	
4	
4	
5	
6	
4	
3	
4	
9	
6	
4	
6	
6	
3	
3	
5	
5	
6	
6	
2	
9	
4	
6	
6	
2	
2	
9	
3	
10	
6	
3	
10	
2	
8	
5	
8	
3	
2	
5	
4	
2	
6	
4	
3	
3	
6	
3	
4	
7	
6	
8	
5	
6	
5	
3	
3	
1	
6	
5	
4	
5	
7	
4	
6	
2	
6	
3	
5	
2	
4	
4	
4	
2	
7	
3	
4	
6	
7	
2	
5	
6	
4	
7	
6	
4	
3	
7	
2	
4	
8	
7	
5	
4	
3	
3	
6	
4	
11	
5	
3	
5	
1	
10	
4	
7	
7	
3	
7	
3	
5	
4	
3	
3	
2	
4	
3	
6	
2	
2	
11	
3	
6	
5	
2	
3	
7	
4	
3	
10	
5	
4	
5	
4	
1	
4	
4	
7	
8	
3	
5	
5	
3	
2	
4	
6	
7	
2	
4	
7	
4	
6	
4	
1	
8	
2	
5	
1	
5	
6	
6	
4	
2	
3	
5	
7	
3	
1	
1	
4	
3	
1	
5	
1	
2	
3	
3	
6	
5	
5	
6	
2	
2	
7	
6	
6	
5	
6	
1	
4	
2	
3	
3	
4	
1	
10	
2	
7	
2	
5	
3	
5	
7	
4	
2	
3	
4	
2	
3	
8	
4	
4	
2	
6	
3	
2	
6	
3	
2	
6	
6	
5	
3	
9	
3	
4	
3	
1	
5	
2	
3	
6	
4	
9	
3	
2	
2	
0	
4	
1	
3	
3	
2	
3	
5	
3	
4	
5	
5	
4	
5	
3	
3	
3	
6	
4	
1	
0	
2	
5	
7	
7	
3	
3	
6	
4	
4	
6	
5	
4	
5	
5	
5	
3	
4	
4	
6	
5	
5	
3	
1	
1	
6	
6	
2	
5	
5	
6	
5	
3	
2	
4	
3	
1	
4	
2	
4	
4	
1	
1	
1	
2	
8	
4	
3	
4	
4	
9	
8	
1	
2	
3	
4	
4	
3	
3	
6	
9	
3	
7	
5	
4	
3	
7	
6	
6	
5	
2	
5	
5	
4	
8	
5	
3	
2	
3	
4	
5	
7	
3	
4	
3	
1	
5	
2	
1	
1	
3	
5	
4	
5	
5	
4	
5	
5	
3	
3	
4	
3	
6	
1	
2	
1	
3	
5	
4	
6	
5	
3	
4	
5	
6	
6	
4	
4	
1	
5	
2	
5	
3	
7	
4	
2	
1	
4	
1	
6	
1	
3	
2	
2	
5	
4	
6	
2	
4	
4	
1	
3	
3	
4	
2	
6	
0	
7	
4	
4	
2	
3	
1	
3	
3	
4	
5	
3	
2	
11	
6	
5	
8	
5	
3	
1	
2	
2	
3	
3	
3	
4	
4	
4	
5	
2	
2	
7	
3	
0	
1	
3	
3	
2	
6	
3	
2	
3	
1	
3	
5	
4	
2	
7	
2	
2	
2	
6	
0	
6	
5	
1	
3	
5	
3	
2	
2	
5	
6	
3	
3	
4	
8	
3	
3	
3	
2	
4	
5	
6	
1	
1	
3	
2	
1	
3	
3	
0	
3	
3	
4	
1	
3	
2	
5	
1	
1	
3	
0	
5	
3	
5	
4	
0	
3	
4	
3	
3	
3	
5	
5	
6	
7	
2	
5	
7	
3	
3	
4	
0	
3	
3	
2	
1	
2	
3	
5	
2	
3	
7	
5	
4	
2	
4	
5	
8	
1	
1	
3	
4	
2	
7	
7	
9	
4	
2	
3	
3	
3	
3	
4	
2	
6	
6	
5	
2	
2	
4	
6	
6	
2	
3	
5	
5	
5	
6	
3	
0	
3	
4	
6	
3	
5	
2	
5	
4	
1	
2	
2	
6	
3	
2	
2	
3	
6	
6	
3	
3	
2	
3	
8	
4	
3	
1	
7	
1	
4	
4	
4	
5	
3	
2	
3	
4	
6	
4	
5	
0	
9	
2	
3	
4	
4	
4	
1	
3	
4	
3	
4	
1	
3	
2	
4	
5	
5	
4	
5	
7	
6	
3	
6	
4	
4	
2	
4	
1	
3	
6	
3	
2	
2	
3	
3	
4	
3	
6	
3	
2	
8	
1	
3	
4	
2	
4	
5	
6	
5	
5	
1	
3	
1	
5	
3	
4	
7	
3	
3	
6	
2	
3	
2	
5	
0	
6	
5	
2	
3	
5	
4	
4	
1	
5	
3	
4	
2	
2	
1	
6	
8	
3	
5	
3	
3	
3	
0	
2	
4	
3	
10	
1	
2	
8	
4	
1	
1	
2	
4	
1	
3	
4	
4	
5	
2	
3	
2	
5	
3	
5	
4	
2	
1	
2	
2	
4	
1	
2	
1	
2	
4	
7	
4	
3	
4	
3	
7	
1	
0	
3	
3	
3	
0	
0	
3	
4	
3	
4	
7	
4	
4	
0	
1	
4	
3	
3	
4	
1	
1	
5	
1	
4	
6	
6	
2	
2	
6	
5	
2	
1	
4	
5	
1	
2	
1	
2	
5	
0	
1	
6	
3	
1	
1	
6	
2	
3	
6	
6	
5	
1	
2	
6	
0	
2	
5	
1	
1	
3	
2	
7	
3	
4	
2	
5	
6	
3	
4	
4	
3	
2	
2	
3	
2	
0	
0	
5	
2	
3	
3	
2	
5	
2	
5	
3	
2	
4	
2	
7	
2	
1	
3	
2	
2	
4	
3	
4	
2	
2	
1	
2	
4	
3	
3	
3	
1	
4	
5	
5	
3	
3	
3	
6	
2	
4	
8	
10	
6	
1	
5	
3	
3	
5	
5	
3	
2	
3	
4	
5	
3	
6	
2	
1	
3	
2	
4	
1	
0	
4	
1	
2	
1	
2	
0	
4	
4	
5	
3	
2	
2	
2	
2	
5	
1	
1	
5	
1	
3	
0	
3	
5	
3	
5	
1	
2	
7	
1	
0	
1	
0	
5	
1	
6	
1	
5	
0	
1	
0	
3	
2	
4	
2	
1	
3	
1	
5	
2	
2	
7	
2	
5	
5	
7	
1	
3	
3	
2	
0	
2	
2	
2	
4	
0	
0	
6	
6	
4	
3	
1	
4	
4	
2	
4	
4	
2	
0	
2	
2	
4	
6	
0	
0	
3	
6	
2	
6	
2	
2	
2	
6	
2	
4	
3	
2	
2	
1	
3	
4	
1	
7	
1	
4	
1	
1	
4	
5	
5	
2	
2	
2	
1	
2	
2	
1	
1	
2	
3	
2	
3	
2	
0	
1	
3	
2	
5	
3	
3	
4	
7	
5	
3	
3	
4	
4	
3	
2	
2	
1	
2	
1	
1	
2	
3	
2	
3	
7	
4	
4	
3	
4	
4	
5	
4	
1	
3	
3	
5	
3	
2	
2	
4	
3	
1	
0	
3	
0	
3	
2	
6	
1	
2	
2	
4	
1	
3	
5	
3	
3	
0	
2	
6	
1	
3	
0	
6	
4	
4	
1	
2	
5	
1	
5	
1	
4	
3	
3	
2	
4	
2	
4	
2	
6	
4	
0	
3	
3	
0	
1	
2	
1	
1	
2	
3	
4	
5	
2	
5	
2	
5	
0	
3	
3	
1	
4	
2	
2	
4	
3	
2	
2	
0	
5	
3	
3	
3	
3	
2	
2	
4	
2	
3	
4	
3	
5	
7	
3	
2	
1	
4	
0	
2	
4	
5	
2	
4	
5	
3	
2	
5	
2	
2	
0	
2	
3	
1	
3	
1	
1	
3	
2	
2	
1	
1	
4	
3	
2	
3	
3	
3	
2	
2	
3	
2	
2	
7	
1	
3	
0	
2	
5	
7	
2	
3	
3	
5	
4	
4	
1	
3	
1	
4	
3	
4	
5	
3	
4	
2	
1	
3	
4	
2	
5	
3	
2	
3	
2	
2	
5	
3	
6	
1	
3	
2	
4	
3	
2	
4	
2	
1	
1	
4	
2	
3	
3	
1	
4	
3	
4	
2	
1	
1	
2	
6	
2	
2	
1	
1	
1	
3	
2	
2	
2	
3	
2	
4	
2	
1	
1	
3	
2	
2	
4	
3	
3	
5	
3	
3	
1	
3	
4	
5	
3	
3	
3	
3	
1	
4	
2	
1	
0	
5	
0	
3	
0	
2	
2	
1	
2	
3	
2	
0	
1	
2	
2	
8	
2	
3	
2	
2	
2	
5	
2	
2	
1	
2	
2	
0	
2	
2	
5	
5	
0	
2	
4	
3	
4	
3	
4	
1	
4	
7	
2	
4	
2	
3	
4	
0	
2	
1	
6	
4	
3	
3	
4	
6	
3	
1	
1	
4	
2	
1	
3	
1	
3	
3	
0	
4	
3	
2	
2	
2	
2	
4	
1	
2	
3	
1	
4	
2	
5	
2	
5	
3	
2	
3	
1	
3	
3	
3	
3	
4	
3	
3	
2	
4	
3	
3	
2	
3	
4	
4	
5	
2	
3	
1	
5	
4	
5	
3	
5	
2	
4	
3	
3	
5	
1	
7	
3	
4	
1	
3	
0	
2	
2	
1	
2	
5	
2	
2	
3	
4	
3	
5	
5	
0	
2	
3	
1	
4	
0	
4	
3	
5	
2	
4	
1	
2	
0	
2	
3	
5	
1	
1	
1	
2	
0	
3	
3	
2	
3	
3	
1	
3	
1	
2	
7	
1	
3	
3	
2	
2	
1	
5	
3	
6	
2	
2	
3	
2	
3	
4	
2	
2	
2	
3	
5	
4	
1	
1	
3	
4	
4	
2	
0	
2	
1	
4	
4	
1	
3	
1	
4	
2	
3	
3	
3	
2	
7	
2	
3	
3	
6	
1	
4	
1	
1	
0	
7	
1	
3	
4	
0	
4	
2	
0	
2	
4	
1	
4	
3	
2	
2	
2	
4	
2	
5	
5	
3	
2	
7	
5	
2	
4	
4	
4	
1	
2	
3	
3	
4	
2	
1	
2	
1	
3	
2	
3	
2	
2	
4	
5	
3	
3	
5	
2	
2	
3	
2	
3	
6	
3	
4	
5	
4	
0	
2	
2	
4	
1	
3	
0	
2	
0	
4	
4	
4	
2	
3	
0	
2	
2	
1	
2	
1	
2	
2	
3	
0	
0	
7	
0	
2	
1	
4	
5	
5	
2	
5	
3	
2	
5	
2	
1	
0	
2	
4	
5	
5	
2	
5	
3	
2	
2	
2	
3	
2	
1	
2	
4	
3	
1	
4	
4	
0	
4	
1	
2	
4	
1	
4	
5	
4	
1	
4	
2	
2	
6	
1	
0	
1	
1	
2	
4	
4	
4	
1	
1	
0	
4	
2	
0	
1	
5	
6	
1	
4	
1	
2	
5	
1	
5	
1	
6	
2	
3	
7	
2	
5	
3	
2	
3	
2	
1	
4	
3	
2	
1	
3	
4	
1	
4	
5	
1	
3	
2	
3	
4	
3	
5	
4	
5	
3	
3	
1	
5	
3	
2	
6	
5	
5	
3	
0	
1	
2	
1	
7	
2	
3	
2	
5	
0	
1	
1	
2	
2	
2	
2	
2	
4	
3	
0	
4	
4	
3	
4	
3	
1	
6	
2	
1	
5	
2	
3	
1	
4	
1	
0	
1	
1	
1	
3	
3	
2	
4	
3	
1	
3	
4	
2	
2	
0	
5	
3	
1	
4	
1	
3	
0	
3	
2	
4	
6	
1	
5	
4	
3	
2	
1	
2	
1	
3	
2	
1	
1	
2	
3	
4	
5	
4	
2	
1	
1	
3	
4	
1	
6	
7	
2	
6	
5	
3	
1	
3	
1	
7	
2	
3	
4	
2	
1	
2	
3	
0	
3	
9	
4	
2	
0	
4	
3	
0	
3	
1	
4	
1	
5	
7	
5	
2	
2	
4	
4	
5	
3	
4	
4	
1	
4	
2	
5	
3	
1	
5	
2	
1	
3	
6	
1	
2	
5	
1	
1	
1	
3	
2	
1	
5	
7	
2	
2	
2	
3	
1	
4	
2	
4	
2	
1	
1	
2	
2	
2	
1	
0	
4	
6	
2	
2	
4	
5	
3	
6	
3	
0	
3	
3	
1	
3	
2	
5	
4	
3	
1	
1	
0	
3	
1	
1	
0	
0	
1	
2	
6	
3	
1	
2	
2	
1	
2	
5	
2	
4	
1	
2	
3	
3	
7	
4	
3	
0	
3	
1	
2	
3	
4	
1	
1	
3	
3	
2	
3	
2	
4	
5	
1	
4	
4	
1	
2	
3	
2	
3	
0	
5	
2	
4	
2	
1	
3	
4	
3	
1	
4	
2	
3	
0	
1	
5	
2	
1	
2	
4	
1	
3	
5	
3	
1	
1	
4	
1	
0	
3	
2	
1	
2	
3	
6	
2	
5	
0	
6	
5	
1	
4	
2	
1	
1	
2	
4	
3	
5	
4	
1	
4	
2	
5	
2	
4	
2	
2	
3	
1	
5	
2	
1	
3	
6	
2	
0	
4	
3	
2	
1	
1	
5	
2	
4	
4	
2	
4	
2	
0	
1	
2	
2	
7	
6	
1	
3	
0	
1	
2	
3	
2	
4	
1	
5	
3	
1	
2	
3	
6	
2	
2	
3	
4	
2	
4	
2	
1	
1	
2	
1	
0	
0	
0	
0	
0	
0	
0	
0	
0	
0	
0	
0	
0	
0	
0	
0	
0	
0	
0	
0	
0	
0	
0	
0	
0	
0	
0	
0	
0	
0	
0	
0	
0	
