#PicoHarp 300  Histogram Data			02/27/2023 02:42:19 PM
#channels per curve
3907
#display curve no.
0	
#memory block no.
0	
#ns/channel
0.1280	
#counts
4	
4	
2	
9	
5	
7	
7	
6	
4	
2	
9	
5	
6	
14	
5	
5	
6	
8	
3	
4	
6	
5	
7	
2	
8	
6	
5	
7	
7	
10	
3	
5	
4	
2	
9	
11	
7	
4	
5	
4	
5	
5	
6	
4	
9	
8	
6	
9	
8	
5	
9	
6	
9	
11	
3	
3	
4	
7	
8	
8	
6	
8	
6	
10	
4	
10	
5	
7	
7	
6	
6	
4	
7	
6	
3	
6	
8	
4	
12	
6	
8	
14	
8	
7	
5	
5	
4	
9	
8	
11	
9	
8	
8	
4	
4	
4	
7	
5	
6	
7	
6	
8	
6	
2	
0	
4	
3	
6	
3	
5	
6	
5	
5	
7	
9	
7	
6	
3	
7	
11	
8	
5	
7	
5	
10	
6	
3	
3	
10	
7	
3	
3	
7	
1	
10	
5	
3	
8	
6	
4	
3	
4	
5	
1	
6	
5	
5	
5	
5	
5	
6	
11	
6	
8	
2	
4	
8	
5	
8	
8	
8	
10	
9	
8	
6	
6	
8	
4	
5	
4	
6	
6	
1	
6	
4	
4	
4	
4	
8	
4	
3	
3	
8	
5	
5	
5	
6	
5	
7	
6	
3	
5	
5	
12	
8	
5	
10	
1	
5	
8	
3	
11	
6	
4	
3	
5	
7	
5	
2	
6	
6	
5	
6	
2	
5	
6	
2	
5	
6	
7	
3	
8	
3	
7	
6	
4	
8	
5	
9	
6	
9	
2	
5	
6	
4	
5	
8	
1	
7	
3	
4	
5	
2	
18	
38	
131	
242	
307	
400	
419	
466	
466	
373	
375	
367	
344	
348	
353	
331	
320	
329	
300	
307	
290	
303	
266	
291	
283	
281	
231	
263	
247	
253	
281	
228	
241	
228	
243	
241	
243	
223	
196	
179	
200	
227	
208	
233	
201	
202	
194	
185	
211	
183	
193	
217	
201	
223	
198	
202	
188	
178	
170	
176	
190	
215	
170	
159	
158	
152	
187	
177	
175	
165	
172	
167	
167	
178	
180	
160	
170	
158	
177	
145	
154	
146	
163	
149	
174	
140	
148	
151	
162	
169	
137	
148	
163	
140	
145	
144	
148	
150	
139	
144	
154	
138	
134	
159	
143	
146	
128	
150	
145	
145	
135	
147	
140	
144	
152	
143	
133	
128	
132	
116	
129	
132	
107	
136	
139	
110	
133	
150	
131	
138	
149	
120	
95	
130	
115	
105	
109	
119	
134	
136	
111	
128	
112	
112	
113	
110	
115	
114	
117	
143	
117	
108	
141	
105	
131	
109	
108	
95	
129	
97	
119	
122	
113	
123	
97	
116	
100	
113	
107	
120	
117	
97	
115	
107	
125	
95	
106	
105	
93	
94	
88	
91	
66	
92	
115	
107	
106	
101	
100	
100	
115	
96	
95	
98	
106	
105	
96	
108	
109	
95	
92	
109	
95	
93	
89	
88	
101	
89	
103	
93	
87	
93	
75	
97	
101	
77	
80	
77	
79	
77	
99	
110	
97	
85	
85	
83	
93	
85	
81	
79	
90	
102	
104	
112	
67	
85	
92	
101	
97	
103	
86	
76	
92	
87	
77	
80	
75	
78	
69	
79	
75	
80	
101	
73	
66	
83	
89	
83	
76	
82	
73	
86	
74	
96	
72	
96	
83	
78	
69	
75	
79	
90	
80	
64	
67	
73	
67	
69	
81	
94	
78	
70	
76	
82	
61	
62	
91	
61	
73	
69	
81	
75	
59	
82	
71	
67	
60	
69	
74	
78	
85	
66	
76	
83	
63	
58	
86	
64	
72	
85	
81	
73	
75	
70	
84	
65	
69	
70	
77	
69	
84	
75	
71	
68	
77	
58	
56	
81	
77	
74	
71	
61	
75	
48	
74	
70	
81	
82	
66	
65	
62	
55	
54	
72	
67	
57	
67	
59	
64	
65	
58	
52	
68	
51	
74	
62	
52	
64	
73	
64	
79	
68	
65	
72	
60	
68	
57	
75	
52	
56	
46	
73	
60	
53	
68	
57	
61	
55	
65	
58	
63	
68	
65	
69	
51	
70	
67	
55	
62	
59	
58	
47	
67	
54	
39	
46	
65	
58	
53	
61	
69	
53	
55	
63	
54	
49	
55	
50	
48	
45	
44	
56	
57	
47	
52	
42	
51	
63	
63	
46	
55	
59	
49	
54	
51	
52	
56	
57	
53	
56	
58	
44	
48	
43	
48	
50	
49	
51	
62	
49	
57	
55	
47	
65	
40	
50	
66	
52	
65	
43	
40	
44	
42	
41	
55	
48	
42	
62	
51	
46	
45	
48	
50	
54	
52	
56	
50	
38	
52	
40	
46	
59	
48	
45	
55	
46	
48	
35	
50	
54	
47	
48	
30	
36	
45	
50	
50	
50	
54	
53	
40	
47	
47	
37	
64	
48	
55	
49	
44	
47	
39	
34	
40	
42	
50	
44	
48	
43	
41	
43	
41	
41	
38	
40	
47	
35	
42	
45	
41	
39	
40	
45	
54	
34	
30	
48	
39	
36	
36	
48	
32	
39	
43	
30	
42	
46	
46	
34	
46	
40	
30	
46	
51	
32	
34	
47	
53	
50	
39	
32	
40	
45	
32	
41	
49	
47	
37	
40	
35	
43	
44	
45	
35	
49	
33	
37	
41	
28	
38	
32	
44	
50	
41	
35	
42	
39	
42	
39	
44	
48	
33	
42	
32	
29	
35	
44	
48	
39	
32	
43	
37	
43	
46	
39	
45	
23	
28	
34	
41	
41	
36	
32	
27	
37	
37	
44	
36	
34	
38	
51	
42	
41	
35	
37	
42	
26	
41	
39	
41	
24	
39	
32	
38	
44	
42	
27	
30	
33	
32	
39	
34	
31	
30	
34	
40	
23	
37	
18	
30	
27	
30	
31	
33	
30	
41	
38	
31	
26	
34	
29	
46	
29	
47	
28	
27	
32	
33	
22	
42	
35	
29	
35	
36	
32	
40	
32	
27	
24	
37	
35	
28	
36	
37	
30	
37	
21	
30	
23	
26	
41	
29	
32	
26	
30	
29	
25	
28	
30	
32	
27	
39	
35	
31	
39	
37	
34	
22	
32	
28	
37	
19	
34	
38	
26	
44	
24	
26	
25	
39	
32	
33	
31	
27	
31	
28	
32	
24	
35	
32	
25	
24	
32	
42	
33	
25	
46	
34	
27	
31	
34	
25	
40	
23	
36	
29	
29	
26	
32	
25	
28	
26	
35	
24	
29	
27	
24	
31	
34	
20	
32	
27	
35	
30	
21	
28	
25	
26	
34	
25	
20	
32	
27	
28	
21	
30	
30	
17	
23	
29	
31	
23	
21	
29	
36	
26	
25	
34	
38	
32	
24	
27	
34	
29	
35	
25	
31	
28	
32	
20	
29	
33	
32	
30	
33	
31	
28	
34	
27	
21	
30	
18	
32	
32	
28	
34	
25	
26	
21	
26	
31	
26	
32	
19	
29	
24	
28	
31	
28	
29	
35	
27	
19	
29	
36	
22	
28	
19	
31	
26	
21	
30	
28	
24	
32	
26	
26	
18	
25	
21	
24	
25	
23	
28	
27	
27	
30	
26	
20	
23	
35	
33	
16	
17	
30	
27	
22	
32	
24	
25	
32	
22	
18	
20	
29	
28	
20	
28	
21	
26	
21	
21	
20	
22	
29	
25	
22	
22	
21	
29	
25	
28	
23	
28	
26	
23	
25	
25	
27	
19	
25	
24	
15	
20	
22	
28	
28	
28	
16	
18	
24	
21	
21	
21	
19	
28	
25	
17	
21	
18	
24	
23	
17	
32	
25	
16	
25	
20	
18	
22	
19	
27	
31	
19	
24	
23	
21	
18	
16	
19	
23	
25	
20	
18	
26	
18	
22	
28	
15	
30	
20	
10	
27	
36	
23	
20	
21	
21	
27	
21	
25	
13	
24	
26	
31	
21	
29	
22	
15	
16	
19	
30	
28	
21	
26	
23	
19	
16	
23	
18	
20	
18	
21	
20	
18	
19	
25	
23	
14	
22	
21	
26	
22	
17	
13	
20	
23	
29	
26	
21	
14	
26	
23	
19	
11	
25	
20	
20	
20	
16	
26	
18	
20	
16	
19	
18	
23	
22	
14	
20	
14	
20	
11	
23	
23	
23	
27	
16	
23	
23	
19	
21	
20	
22	
18	
26	
16	
18	
24	
13	
20	
19	
23	
19	
20	
23	
14	
17	
20	
22	
16	
15	
21	
19	
16	
18	
20	
19	
19	
19	
16	
21	
20	
21	
20	
27	
10	
25	
17	
19	
21	
29	
18	
20	
17	
18	
18	
21	
16	
15	
19	
15	
16	
23	
20	
16	
18	
19	
17	
25	
17	
13	
14	
25	
19	
17	
13	
22	
18	
20	
16	
16	
12	
22	
11	
18	
15	
11	
24	
19	
24	
20	
10	
21	
19	
19	
16	
22	
24	
14	
17	
21	
23	
13	
9	
24	
15	
21	
18	
16	
12	
17	
22	
21	
16	
18	
13	
14	
13	
13	
12	
24	
14	
19	
14	
13	
15	
20	
18	
13	
19	
22	
11	
9	
19	
9	
18	
20	
21	
11	
18	
22	
11	
16	
17	
17	
19	
24	
8	
16	
16	
17	
12	
20	
15	
15	
22	
9	
17	
24	
23	
8	
17	
9	
14	
20	
15	
18	
17	
28	
13	
17	
20	
15	
19	
21	
17	
15	
14	
17	
21	
17	
9	
15	
17	
21	
13	
12	
18	
17	
18	
16	
8	
19	
21	
16	
17	
20	
13	
17	
14	
22	
16	
14	
9	
16	
18	
16	
15	
12	
17	
14	
17	
12	
20	
11	
15	
11	
21	
16	
16	
11	
19	
20	
13	
12	
15	
17	
12	
22	
26	
14	
18	
14	
9	
18	
23	
15	
25	
14	
14	
8	
9	
11	
14	
22	
15	
16	
11	
10	
17	
9	
13	
15	
15	
17	
19	
17	
18	
11	
12	
24	
17	
17	
17	
11	
18	
20	
15	
20	
11	
14	
12	
7	
21	
17	
19	
21	
13	
23	
13	
13	
10	
15	
13	
22	
21	
19	
15	
25	
17	
14	
11	
13	
22	
12	
19	
12	
13	
10	
15	
14	
18	
16	
10	
11	
8	
15	
21	
15	
15	
10	
16	
17	
23	
20	
13	
13	
17	
18	
13	
18	
20	
14	
15	
11	
14	
16	
17	
19	
16	
13	
17	
17	
19	
22	
10	
15	
6	
13	
15	
18	
13	
13	
14	
13	
12	
16	
16	
13	
14	
18	
14	
16	
12	
14	
12	
17	
14	
19	
13	
9	
16	
17	
9	
11	
12	
12	
14	
8	
10	
12	
15	
16	
12	
17	
11	
14	
18	
9	
19	
11	
13	
6	
14	
12	
17	
13	
12	
10	
14	
10	
12	
17	
11	
17	
14	
15	
16	
14	
8	
11	
13	
16	
10	
20	
8	
22	
20	
14	
9	
14	
17	
15	
14	
9	
10	
13	
11	
14	
16	
12	
16	
15	
12	
10	
14	
11	
13	
12	
10	
14	
11	
19	
15	
8	
15	
17	
9	
14	
12	
10	
13	
10	
14	
12	
13	
15	
12	
10	
20	
13	
16	
12	
13	
14	
11	
16	
10	
19	
7	
9	
13	
16	
7	
15	
12	
14	
21	
9	
10	
11	
16	
10	
16	
12	
13	
13	
11	
13	
10	
17	
9	
17	
13	
16	
11	
10	
16	
19	
11	
8	
10	
14	
14	
6	
17	
19	
16	
16	
11	
12	
17	
11	
15	
18	
11	
11	
15	
12	
12	
9	
17	
7	
14	
11	
21	
11	
16	
10	
14	
20	
11	
12	
9	
11	
9	
17	
11	
9	
17	
13	
13	
11	
18	
10	
11	
21	
13	
8	
6	
12	
7	
19	
9	
9	
13	
8	
8	
12	
15	
9	
13	
11	
15	
10	
12	
19	
15	
12	
13	
14	
13	
13	
13	
14	
15	
8	
11	
5	
15	
10	
7	
11	
7	
9	
10	
10	
9	
9	
14	
13	
13	
10	
10	
13	
12	
14	
7	
5	
12	
9	
17	
14	
10	
12	
13	
16	
13	
18	
14	
13	
9	
9	
14	
10	
11	
11	
13	
9	
11	
14	
13	
15	
16	
16	
6	
15	
10	
13	
5	
15	
22	
13	
11	
19	
6	
11	
12	
11	
9	
16	
14	
19	
12	
9	
12	
13	
9	
11	
13	
6	
5	
11	
11	
22	
10	
10	
10	
4	
9	
11	
9	
12	
9	
16	
9	
13	
15	
15	
16	
22	
14	
6	
10	
9	
11	
12	
9	
7	
11	
15	
9	
11	
14	
15	
13	
10	
13	
4	
14	
12	
12	
19	
10	
13	
10	
14	
11	
17	
10	
11	
18	
10	
5	
14	
15	
13	
11	
14	
11	
16	
16	
9	
6	
13	
10	
9	
6	
11	
14	
11	
17	
9	
14	
12	
8	
10	
13	
5	
8	
9	
11	
15	
11	
14	
11	
10	
9	
10	
10	
12	
9	
13	
11	
7	
4	
13	
6	
8	
9	
13	
13	
9	
13	
6	
10	
11	
8	
7	
16	
11	
9	
8	
14	
8	
11	
12	
9	
9	
6	
7	
8	
14	
11	
13	
12	
6	
16	
15	
10	
11	
11	
12	
9	
13	
11	
5	
11	
10	
9	
8	
9	
10	
12	
13	
8	
3	
9	
11	
14	
6	
11	
2	
8	
14	
8	
12	
6	
21	
18	
5	
4	
11	
10	
8	
10	
8	
15	
15	
9	
7	
10	
16	
8	
7	
11	
13	
11	
13	
10	
16	
15	
10	
6	
5	
9	
10	
13	
15	
11	
10	
6	
8	
10	
5	
12	
13	
11	
7	
13	
13	
12	
17	
14	
11	
13	
14	
14	
10	
5	
11	
7	
10	
10	
10	
13	
16	
10	
11	
8	
11	
10	
10	
11	
16	
9	
11	
9	
19	
17	
15	
6	
9	
10	
9	
9	
9	
14	
8	
5	
11	
12	
5	
10	
8	
14	
8	
8	
11	
10	
10	
9	
8	
8	
9	
11	
10	
9	
11	
10	
14	
9	
14	
11	
8	
9	
6	
20	
16	
13	
12	
11	
12	
9	
11	
9	
7	
14	
10	
5	
9	
9	
5	
14	
11	
8	
11	
10	
11	
9	
8	
8	
6	
11	
8	
14	
8	
7	
13	
8	
18	
8	
7	
7	
12	
13	
7	
5	
12	
6	
14	
19	
8	
7	
14	
13	
12	
12	
3	
9	
8	
7	
6	
12	
11	
8	
10	
10	
10	
14	
8	
11	
11	
14	
10	
5	
11	
11	
15	
9	
9	
9	
11	
13	
14	
11	
13	
11	
7	
18	
9	
16	
8	
5	
5	
8	
6	
6	
8	
9	
7	
11	
7	
5	
8	
12	
6	
6	
3	
13	
12	
8	
13	
6	
6	
9	
11	
10	
12	
5	
10	
7	
7	
16	
11	
8	
11	
15	
8	
11	
5	
7	
5	
7	
13	
10	
8	
6	
8	
9	
13	
10	
11	
11	
17	
6	
5	
9	
5	
10	
3	
9	
11	
12	
5	
9	
8	
15	
16	
7	
9	
6	
7	
8	
20	
11	
13	
10	
7	
11	
8	
7	
5	
7	
7	
8	
12	
10	
9	
12	
9	
11	
12	
10	
7	
9	
7	
6	
14	
7	
11	
12	
6	
5	
3	
7	
9	
8	
9	
11	
18	
7	
6	
7	
10	
7	
7	
10	
11	
16	
6	
9	
7	
14	
3	
7	
7	
11	
7	
10	
10	
7	
10	
7	
13	
8	
7	
9	
8	
9	
5	
4	
11	
8	
13	
10	
2	
6	
6	
16	
11	
7	
14	
13	
7	
10	
7	
10	
10	
3	
7	
5	
6	
11	
11	
6	
0	
10	
9	
9	
13	
8	
12	
10	
8	
8	
10	
9	
12	
11	
7	
6	
5	
12	
7	
10	
11	
9	
5	
3	
6	
11	
7	
4	
11	
8	
7	
18	
7	
13	
7	
8	
8	
9	
12	
6	
10	
7	
14	
8	
12	
7	
6	
7	
13	
9	
12	
9	
9	
17	
6	
15	
11	
7	
9	
7	
8	
8	
9	
4	
7	
7	
7	
16	
12	
5	
9	
7	
1	
8	
6	
14	
7	
5	
4	
11	
12	
11	
9	
8	
8	
9	
10	
10	
9	
8	
6	
5	
15	
11	
11	
5	
13	
10	
9	
10	
7	
3	
9	
10	
10	
11	
10	
9	
3	
13	
9	
7	
5	
11	
7	
14	
5	
6	
13	
9	
11	
4	
8	
5	
7	
6	
5	
8	
6	
6	
11	
9	
3	
9	
7	
14	
5	
5	
7	
8	
17	
9	
10	
10	
9	
10	
2	
11	
10	
9	
10	
7	
6	
6	
6	
7	
12	
12	
6	
5	
5	
4	
9	
6	
7	
4	
9	
8	
7	
10	
8	
11	
7	
13	
5	
11	
12	
9	
10	
8	
14	
9	
10	
9	
13	
10	
5	
5	
7	
6	
9	
7	
6	
12	
12	
8	
11	
5	
4	
7	
4	
9	
12	
7	
9	
9	
11	
5	
6	
15	
8	
8	
4	
9	
8	
8	
5	
9	
9	
7	
9	
8	
9	
8	
7	
12	
4	
7	
5	
4	
7	
10	
8	
4	
9	
7	
9	
14	
10	
7	
14	
5	
12	
7	
10	
6	
8	
10	
8	
8	
10	
6	
7	
6	
8	
5	
6	
7	
6	
4	
11	
9	
8	
5	
6	
7	
3	
6	
9	
12	
8	
8	
14	
12	
11	
10	
11	
10	
12	
5	
8	
8	
15	
4	
6	
9	
9	
8	
4	
5	
10	
10	
7	
3	
10	
11	
2	
7	
9	
10	
7	
6	
9	
8	
8	
5	
10	
10	
6	
4	
7	
4	
7	
8	
3	
4	
8	
6	
8	
8	
8	
7	
8	
8	
9	
11	
5	
7	
6	
11	
11	
6	
11	
6	
11	
11	
9	
7	
5	
9	
14	
6	
9	
14	
6	
7	
14	
6	
5	
5	
7	
12	
6	
7	
6	
10	
14	
6	
6	
6	
10	
9	
6	
10	
7	
7	
7	
8	
9	
7	
8	
11	
6	
9	
5	
6	
12	
6	
4	
11	
10	
6	
8	
11	
10	
8	
2	
9	
6	
6	
11	
6	
6	
7	
5	
5	
7	
9	
8	
7	
8	
6	
8	
10	
11	
3	
6	
6	
8	
9	
10	
5	
7	
7	
5	
11	
9	
8	
9	
6	
6	
8	
2	
11	
5	
4	
8	
9	
7	
5	
7	
9	
6	
5	
9	
4	
10	
5	
9	
6	
8	
9	
6	
4	
9	
11	
8	
6	
11	
10	
3	
14	
8	
8	
5	
8	
8	
4	
10	
10	
12	
11	
6	
4	
10	
4	
3	
4	
6	
2	
6	
7	
10	
6	
13	
8	
6	
7	
5	
14	
5	
12	
4	
8	
8	
13	
10	
4	
9	
9	
8	
7	
5	
10	
7	
10	
8	
9	
10	
8	
7	
5	
7	
8	
3	
5	
6	
8	
11	
6	
8	
1	
4	
8	
8	
7	
6	
6	
7	
5	
5	
6	
5	
11	
6	
9	
8	
7	
10	
4	
9	
7	
15	
12	
6	
8	
12	
9	
5	
9	
10	
5	
7	
9	
8	
9	
5	
10	
12	
4	
9	
8	
5	
9	
6	
7	
8	
9	
13	
5	
10	
8	
7	
9	
10	
6	
5	
6	
8	
5	
6	
8	
5	
7	
9	
8	
4	
12	
12	
12	
7	
8	
9	
9	
8	
6	
4	
4	
12	
1	
12	
7	
10	
7	
3	
9	
8	
9	
3	
5	
9	
7	
10	
9	
8	
7	
6	
7	
6	
7	
5	
8	
8	
11	
5	
2	
3	
6	
7	
6	
9	
8	
7	
3	
4	
5	
6	
5	
10	
9	
3	
3	
8	
7	
9	
8	
11	
13	
9	
9	
7	
6	
6	
2	
5	
6	
5	
6	
12	
8	
5	
10	
5	
7	
6	
3	
6	
4	
7	
2	
6	
5	
4	
9	
8	
10	
11	
6	
8	
11	
10	
9	
7	
6	
4	
5	
8	
6	
5	
8	
7	
6	
3	
6	
10	
10	
6	
5	
2	
6	
7	
10	
11	
9	
9	
7	
9	
10	
7	
6	
9	
3	
16	
5	
3	
5	
10	
10	
3	
5	
10	
4	
7	
6	
8	
6	
7	
6	
8	
4	
8	
6	
6	
6	
11	
5	
6	
10	
7	
8	
10	
7	
7	
5	
6	
7	
4	
9	
4	
11	
6	
9	
6	
2	
8	
4	
6	
7	
5	
6	
8	
9	
5	
7	
6	
7	
7	
9	
7	
9	
5	
8	
5	
7	
8	
7	
10	
10	
8	
10	
6	
5	
5	
4	
8	
6	
5	
7	
6	
5	
8	
7	
9	
3	
10	
8	
3	
11	
8	
4	
9	
4	
8	
9	
8	
8	
8	
9	
6	
6	
5	
10	
6	
5	
7	
8	
9	
7	
6	
10	
8	
7	
9	
6	
8	
9	
8	
8	
4	
3	
4	
4	
3	
6	
4	
7	
3	
9	
9	
7	
10	
6	
6	
13	
8	
5	
8	
9	
12	
8	
1	
5	
9	
6	
9	
11	
8	
7	
8	
6	
7	
10	
7	
14	
8	
6	
4	
4	
7	
7	
10	
9	
4	
9	
4	
5	
5	
9	
10	
8	
5	
6	
12	
4	
7	
11	
4	
7	
7	
4	
7	
4	
8	
5	
10	
7	
8	
9	
7	
6	
9	
2	
8	
6	
9	
5	
8	
7	
6	
5	
9	
4	
7	
6	
6	
8	
16	
2	
5	
5	
7	
7	
14	
7	
2	
6	
6	
4	
7	
3	
8	
7	
8	
7	
4	
7	
4	
2	
6	
5	
11	
10	
6	
6	
4	
8	
8	
8	
11	
4	
7	
7	
5	
4	
7	
3	
4	
10	
6	
7	
4	
7	
7	
8	
8	
15	
10	
6	
6	
4	
5	
6	
8	
3	
5	
6	
9	
7	
7	
3	
8	
6	
9	
3	
8	
4	
10	
8	
7	
3	
6	
8	
7	
8	
5	
6	
5	
6	
4	
7	
10	
11	
5	
7	
5	
7	
9	
7	
5	
9	
8	
3	
10	
4	
8	
4	
6	
12	
6	
7	
10	
3	
6	
5	
4	
6	
8	
7	
11	
6	
4	
3	
7	
3	
8	
4	
5	
5	
8	
7	
7	
4	
11	
3	
4	
10	
6	
9	
10	
5	
8	
6	
6	
3	
5	
8	
10	
8	
2	
8	
3	
7	
6	
6	
7	
3	
7	
5	
7	
4	
7	
11	
3	
5	
1	
8	
5	
8	
8	
6	
5	
6	
4	
5	
4	
2	
3	
6	
9	
8	
6	
6	
4	
4	
2	
7	
2	
8	
5	
8	
9	
8	
9	
4	
9	
7	
9	
11	
5	
3	
7	
7	
7	
6	
9	
2	
3	
7	
3	
6	
7	
3	
5	
5	
9	
7	
2	
8	
6	
4	
8	
4	
8	
8	
11	
3	
4	
5	
2	
7	
7	
5	
4	
7	
1	
10	
14	
6	
4	
10	
1	
8	
3	
6	
12	
5	
10	
9	
10	
8	
8	
6	
4	
6	
4	
7	
5	
2	
6	
4	
4	
9	
8	
7	
7	
4	
6	
5	
15	
8	
8	
9	
6	
4	
5	
6	
13	
12	
3	
7	
7	
11	
6	
2	
9	
5	
7	
4	
4	
2	
4	
4	
6	
4	
6	
7	
4	
6	
8	
4	
3	
4	
3	
9	
4	
6	
6	
4	
9	
11	
6	
6	
3	
10	
8	
7	
5	
8	
10	
7	
3	
7	
8	
10	
5	
6	
9	
6	
4	
3	
9	
5	
6	
8	
5	
5	
8	
2	
5	
7	
9	
8	
4	
6	
4	
6	
4	
3	
3	
7	
7	
5	
5	
4	
8	
10	
8	
6	
5	
7	
4	
5	
5	
10	
5	
3	
2	
7	
5	
8	
7	
9	
6	
10	
6	
7	
4	
5	
3	
5	
5	
6	
3	
4	
3	
4	
4	
6	
9	
8	
3	
4	
2	
6	
9	
8	
2	
8	
3	
8	
13	
7	
7	
4	
5	
4	
5	
8	
6	
7	
5	
10	
2	
7	
8	
6	
6	
8	
8	
6	
4	
7	
5	
5	
7	
5	
6	
5	
4	
12	
10	
6	
5	
3	
2	
1	
1	
4	
6	
8	
7	
3	
7	
11	
1	
3	
11	
3	
10	
6	
5	
9	
5	
11	
8	
5	
6	
8	
3	
6	
6	
5	
5	
10	
9	
5	
8	
4	
4	
7	
7	
12	
9	
6	
6	
5	
5	
6	
4	
5	
5	
8	
6	
2	
2	
3	
9	
5	
10	
3	
9	
3	
6	
5	
2	
9	
5	
4	
6	
5	
9	
3	
8	
6	
14	
3	
5	
4	
5	
10	
4	
11	
5	
8	
6	
4	
6	
6	
5	
10	
7	
5	
2	
3	
6	
4	
9	
6	
8	
9	
5	
10	
3	
3	
7	
8	
6	
10	
9	
4	
6	
3	
9	
4	
6	
5	
9	
7	
4	
4	
4	
4	
9	
8	
9	
3	
3	
10	
8	
7	
8	
3	
8	
3	
1	
0	
0	
0	
0	
0	
0	
0	
0	
0	
0	
0	
0	
0	
0	
0	
0	
0	
0	
0	
0	
0	
0	
0	
0	
0	
0	
0	
0	
0	
0	
0	
0	
0	
