#PicoHarp 300  Histogram Data			02/27/2023 02:41:35 PM
#channels per curve
7813
#display curve no.
0	
#memory block no.
0	
#ns/channel
0.1280	
#counts
1	
1	
1	
4	
2	
3	
3	
4	
3	
3	
2	
2	
1	
2	
0	
1	
1	
2	
2	
3	
4	
2	
4	
2	
2	
1	
1	
3	
0	
2	
2	
2	
2	
3	
3	
4	
2	
1	
1	
0	
1	
0	
0	
1	
0	
2	
2	
3	
3	
4	
0	
4	
2	
5	
0	
1	
6	
2	
2	
5	
2	
2	
0	
3	
5	
3	
4	
2	
1	
4	
0	
2	
4	
2	
3	
2	
2	
1	
3	
3	
2	
2	
3	
0	
3	
5	
2	
1	
2	
3	
2	
0	
2	
1	
4	
3	
2	
3	
2	
4	
4	
1	
2	
3	
0	
3	
2	
1	
3	
1	
1	
5	
1	
2	
3	
0	
0	
1	
0	
4	
3	
3	
3	
1	
3	
0	
0	
2	
3	
1	
2	
2	
1	
2	
1	
0	
0	
0	
2	
1	
0	
3	
2	
3	
5	
3	
2	
3	
1	
1	
5	
5	
2	
4	
2	
3	
3	
5	
1	
4	
1	
3	
1	
1	
0	
1	
0	
4	
5	
1	
2	
3	
3	
4	
0	
3	
0	
2	
3	
1	
0	
2	
2	
4	
3	
2	
1	
6	
1	
0	
2	
2	
3	
4	
1	
2	
2	
1	
3	
5	
2	
3	
2	
2	
2	
2	
2	
2	
1	
0	
4	
2	
0	
1	
1	
3	
1	
2	
6	
4	
0	
2	
4	
6	
4	
2	
1	
3	
2	
1	
0	
1	
0	
5	
1	
2	
1	
2	
1	
5	
9	
4	
12	
16	
36	
63	
70	
105	
129	
153	
142	
153	
135	
131	
131	
110	
125	
99	
108	
98	
117	
90	
89	
93	
88	
77	
100	
84	
81	
86	
104	
87	
71	
66	
74	
67	
78	
91	
70	
72	
71	
67	
73	
68	
86	
76	
66	
75	
57	
74	
68	
64	
69	
53	
60	
52	
58	
52	
66	
51	
66	
62	
40	
59	
60	
53	
53	
52	
53	
51	
47	
52	
54	
49	
51	
54	
47	
60	
53	
61	
45	
55	
59	
70	
42	
46	
37	
45	
56	
61	
46	
45	
55	
46	
47	
51	
51	
54	
49	
38	
38	
49	
45	
48	
27	
53	
45	
36	
48	
42	
39	
48	
53	
51	
45	
43	
43	
51	
43	
33	
47	
49	
47	
36	
32	
25	
50	
33	
40	
32	
58	
39	
36	
50	
44	
37	
49	
36	
43	
38	
25	
34	
43	
41	
51	
40	
54	
32	
34	
45	
34	
33	
35	
32	
36	
30	
26	
37	
45	
28	
43	
31	
43	
38	
35	
36	
39	
33	
29	
35	
34	
25	
32	
28	
34	
32	
31	
26	
40	
35	
29	
26	
30	
40	
24	
37	
43	
33	
37	
38	
21	
32	
37	
27	
32	
29	
33	
33	
33	
28	
20	
30	
25	
23	
30	
35	
31	
27	
39	
36	
29	
33	
33	
30	
24	
37	
32	
33	
32	
19	
34	
26	
34	
17	
23	
20	
27	
24	
41	
26	
26	
30	
26	
27	
29	
22	
23	
30	
20	
28	
36	
26	
36	
25	
32	
28	
28	
19	
27	
29	
23	
29	
20	
23	
26	
22	
25	
40	
20	
24	
18	
27	
17	
30	
30	
30	
34	
15	
20	
23	
19	
23	
31	
21	
25	
21	
31	
30	
29	
20	
26	
21	
17	
19	
22	
21	
24	
27	
31	
30	
17	
23	
24	
22	
14	
21	
24	
29	
25	
29	
19	
17	
22	
26	
16	
20	
18	
17	
19	
17	
23	
17	
23	
17	
20	
21	
18	
22	
19	
23	
24	
26	
18	
20	
31	
15	
21	
19	
26	
15	
27	
19	
19	
21	
16	
17	
21	
18	
18	
24	
14	
19	
21	
23	
20	
21	
16	
24	
17	
22	
20	
19	
17	
13	
18	
20	
15	
17	
30	
18	
24	
16	
21	
16	
17	
18	
14	
18	
14	
24	
18	
18	
21	
19	
28	
26	
18	
14	
18	
28	
21	
28	
14	
21	
25	
16	
15	
18	
18	
33	
14	
23	
14	
21	
15	
25	
20	
18	
17	
14	
14	
13	
14	
18	
16	
12	
20	
13	
12	
22	
11	
17	
14	
22	
17	
16	
17	
20	
11	
14	
11	
24	
10	
15	
23	
15	
17	
11	
19	
15	
21	
17	
16	
12	
17	
12	
18	
17	
9	
16	
12	
12	
14	
15	
17	
12	
13	
17	
15	
19	
16	
20	
9	
18	
16	
12	
20	
9	
14	
20	
9	
12	
14	
12	
9	
12	
16	
21	
15	
15	
13	
15	
14	
11	
16	
12	
11	
11	
14	
13	
12	
11	
14	
13	
15	
12	
12	
15	
18	
19	
12	
16	
14	
16	
18	
9	
15	
20	
21	
14	
10	
18	
17	
14	
14	
17	
15	
15	
22	
11	
13	
13	
20	
16	
10	
13	
12	
17	
16	
12	
13	
9	
16	
10	
10	
12	
18	
12	
12	
19	
11	
11	
15	
11	
17	
12	
13	
18	
13	
15	
14	
11	
11	
19	
11	
15	
19	
16	
11	
16	
12	
13	
11	
16	
8	
13	
11	
11	
10	
12	
7	
14	
9	
19	
14	
15	
18	
10	
15	
11	
14	
13	
12	
19	
11	
12	
9	
17	
18	
9	
8	
9	
9	
9	
10	
13	
14	
10	
10	
9	
13	
13	
13	
10	
12	
14	
11	
14	
15	
7	
16	
11	
14	
11	
6	
16	
10	
7	
14	
13	
15	
11	
13	
7	
9	
10	
11	
14	
12	
11	
16	
14	
15	
10	
19	
9	
11	
9	
8	
11	
7	
6	
16	
10	
12	
9	
15	
9	
9	
14	
9	
20	
8	
10	
16	
9	
7	
9	
13	
8	
9	
14	
12	
19	
9	
8	
12	
15	
12	
10	
5	
3	
14	
10	
10	
8	
5	
6	
10	
10	
13	
14	
6	
4	
7	
10	
7	
12	
6	
10	
9	
13	
9	
12	
8	
11	
7	
10	
6	
6	
5	
9	
8	
9	
9	
8	
10	
8	
10	
5	
12	
8	
12	
11	
14	
10	
7	
12	
14	
8	
13	
5	
13	
7	
7	
15	
9	
5	
8	
10	
7	
13	
9	
6	
6	
12	
13	
9	
13	
7	
7	
7	
9	
9	
8	
6	
8	
11	
11	
6	
9	
9	
8	
12	
5	
7	
10	
10	
7	
12	
7	
7	
4	
9	
15	
10	
8	
4	
12	
5	
8	
4	
8	
5	
10	
9	
9	
13	
6	
11	
7	
11	
8	
11	
12	
12	
7	
7	
5	
10	
4	
10	
9	
7	
10	
10	
11	
8	
8	
19	
9	
6	
10	
3	
4	
12	
8	
6	
10	
7	
9	
2	
8	
11	
13	
6	
9	
5	
8	
6	
9	
7	
5	
10	
9	
10	
9	
9	
7	
5	
7	
6	
4	
6	
5	
7	
5	
8	
6	
9	
8	
9	
9	
8	
4	
8	
5	
6	
10	
8	
13	
7	
10	
8	
5	
9	
5	
8	
5	
8	
7	
6	
12	
7	
6	
12	
7	
8	
8	
12	
7	
8	
8	
7	
12	
9	
6	
10	
8	
7	
8	
7	
9	
12	
7	
10	
10	
2	
12	
8	
10	
8	
11	
2	
6	
8	
3	
8	
5	
15	
8	
15	
7	
4	
9	
5	
4	
11	
9	
10	
9	
6	
7	
8	
15	
11	
8	
8	
5	
10	
10	
2	
7	
3	
7	
5	
7	
7	
5	
9	
8	
6	
4	
8	
6	
6	
12	
4	
13	
7	
1	
2	
3	
10	
6	
5	
4	
8	
6	
7	
5	
4	
8	
6	
11	
8	
8	
14	
2	
8	
3	
9	
5	
7	
10	
4	
8	
6	
3	
4	
10	
4	
4	
10	
11	
2	
0	
7	
5	
7	
4	
4	
7	
10	
9	
2	
9	
9	
5	
9	
8	
6	
5	
2	
5	
7	
3	
9	
2	
5	
4	
8	
6	
8	
5	
14	
11	
2	
9	
9	
10	
13	
5	
6	
6	
4	
8	
4	
6	
7	
12	
12	
12	
3	
6	
4	
6	
10	
7	
6	
3	
8	
4	
6	
3	
7	
5	
4	
10	
4	
8	
7	
11	
3	
4	
7	
6	
3	
5	
5	
6	
4	
8	
8	
7	
4	
7	
9	
10	
8	
3	
8	
9	
9	
6	
6	
6	
9	
2	
6	
3	
7	
6	
9	
4	
11	
9	
6	
9	
3	
6	
6	
2	
8	
3	
5	
6	
7	
5	
3	
5	
9	
8	
7	
7	
7	
4	
6	
9	
5	
5	
7	
6	
7	
5	
7	
8	
3	
5	
8	
9	
8	
9	
4	
3	
4	
10	
9	
3	
10	
4	
7	
5	
2	
4	
6	
9	
3	
5	
8	
6	
5	
7	
8	
6	
12	
6	
2	
5	
6	
5	
7	
6	
1	
10	
5	
5	
3	
10	
3	
8	
6	
3	
8	
4	
3	
4	
3	
3	
7	
4	
2	
7	
7	
5	
3	
11	
4	
8	
4	
4	
5	
7	
8	
3	
7	
5	
3	
6	
7	
8	
4	
9	
3	
4	
3	
8	
2	
6	
3	
2	
10	
6	
2	
7	
5	
4	
9	
6	
10	
7	
4	
5	
7	
5	
2	
7	
10	
12	
2	
5	
5	
4	
11	
3	
7	
7	
7	
5	
5	
8	
14	
3	
8	
7	
10	
9	
6	
5	
3	
5	
3	
3	
11	
2	
6	
6	
4	
9	
4	
8	
4	
4	
0	
5	
2	
5	
2	
3	
4	
2	
6	
8	
4	
5	
8	
3	
5	
6	
8	
3	
7	
4	
3	
5	
2	
5	
9	
4	
6	
10	
5	
4	
5	
5	
8	
4	
6	
2	
8	
2	
4	
5	
4	
6	
4	
1	
8	
10	
6	
7	
5	
5	
6	
7	
5	
8	
2	
3	
6	
8	
3	
6	
9	
5	
2	
8	
3	
6	
3	
4	
7	
5	
3	
1	
7	
4	
4	
5	
4	
4	
2	
7	
3	
5	
8	
4	
4	
6	
4	
6	
7	
6	
1	
4	
9	
3	
5	
6	
9	
3	
6	
3	
6	
7	
4	
2	
4	
5	
6	
3	
3	
5	
5	
5	
5	
4	
4	
5	
2	
5	
4	
4	
5	
6	
6	
3	
8	
5	
6	
8	
4	
5	
5	
6	
1	
5	
4	
4	
4	
5	
2	
4	
5	
5	
5	
8	
3	
5	
2	
4	
5	
2	
9	
3	
5	
9	
5	
2	
3	
5	
2	
2	
7	
9	
5	
4	
7	
2	
3	
6	
5	
1	
5	
5	
1	
1	
3	
5	
4	
3	
5	
10	
4	
3	
2	
1	
2	
8	
5	
6	
5	
3	
6	
3	
3	
3	
6	
2	
1	
3	
5	
7	
4	
5	
6	
5	
5	
4	
5	
3	
8	
6	
9	
2	
0	
5	
6	
2	
6	
2	
7	
6	
0	
7	
4	
3	
3	
7	
0	
10	
4	
5	
2	
2	
4	
6	
4	
5	
3	
4	
4	
4	
7	
9	
3	
3	
3	
3	
8	
6	
5	
1	
3	
6	
6	
3	
4	
8	
5	
5	
4	
1	
2	
1	
5	
2	
6	
4	
3	
3	
7	
4	
5	
5	
6	
7	
1	
4	
6	
4	
3	
3	
1	
1	
1	
4	
3	
5	
1	
6	
7	
10	
4	
4	
7	
1	
3	
3	
3	
4	
4	
3	
2	
2	
4	
4	
5	
3	
7	
4	
10	
3	
1	
3	
4	
8	
5	
4	
3	
11	
2	
6	
5	
5	
8	
4	
2	
6	
5	
1	
5	
4	
5	
4	
3	
6	
2	
5	
3	
3	
6	
4	
5	
6	
2	
6	
5	
5	
2	
3	
5	
1	
1	
4	
4	
6	
2	
1	
1	
1	
5	
1	
3	
10	
7	
6	
6	
2	
2	
5	
3	
2	
7	
5	
5	
3	
4	
5	
2	
7	
2	
5	
3	
4	
4	
6	
4	
1	
1	
4	
3	
4	
4	
5	
6	
3	
3	
1	
3	
4	
4	
2	
3	
5	
4	
3	
6	
3	
4	
2	
2	
9	
3	
5	
4	
6	
4	
3	
5	
3	
2	
6	
3	
5	
6	
6	
4	
5	
2	
5	
4	
2	
3	
1	
6	
3	
3	
2	
3	
4	
4	
5	
6	
1	
3	
2	
4	
5	
3	
3	
2	
5	
0	
3	
5	
3	
3	
2	
2	
3	
6	
6	
2	
3	
3	
2	
6	
2	
8	
4	
3	
1	
5	
7	
4	
5	
4	
1	
4	
3	
6	
4	
4	
5	
3	
3	
1	
6	
3	
2	
5	
3	
3	
1	
7	
3	
3	
0	
1	
5	
3	
1	
6	
5	
6	
3	
7	
2	
5	
5	
4	
2	
2	
4	
6	
1	
3	
4	
4	
6	
4	
10	
7	
5	
8	
2	
2	
4	
3	
4	
3	
1	
6	
4	
4	
5	
5	
4	
3	
5	
6	
6	
4	
4	
1	
5	
4	
1	
1	
1	
1	
2	
3	
4	
4	
3	
3	
4	
2	
3	
2	
3	
4	
3	
2	
4	
5	
3	
2	
4	
4	
5	
2	
8	
4	
4	
2	
3	
2	
0	
5	
6	
3	
4	
1	
4	
3	
2	
3	
4	
5	
5	
9	
3	
3	
3	
3	
4	
2	
5	
2	
5	
2	
4	
5	
4	
4	
4	
3	
4	
4	
2	
7	
3	
1	
0	
3	
6	
3	
5	
4	
3	
3	
2	
5	
3	
1	
3	
2	
4	
6	
6	
1	
3	
8	
3	
3	
4	
3	
0	
4	
2	
3	
5	
3	
1	
8	
3	
5	
4	
1	
1	
2	
3	
5	
5	
5	
3	
4	
2	
5	
4	
1	
2	
3	
4	
1	
8	
2	
2	
4	
2	
1	
0	
4	
4	
4	
3	
3	
4	
4	
1	
3	
5	
3	
6	
4	
2	
2	
4	
5	
3	
3	
5	
5	
5	
2	
2	
6	
5	
1	
1	
1	
3	
4	
3	
4	
5	
3	
3	
4	
5	
4	
1	
0	
0	
3	
1	
0	
5	
1	
5	
2	
2	
5	
1	
5	
4	
5	
3	
2	
3	
1	
3	
1	
2	
3	
4	
5	
2	
6	
3	
3	
3	
5	
3	
1	
5	
4	
1	
5	
2	
3	
3	
2	
5	
3	
2	
6	
3	
5	
9	
2	
5	
2	
5	
2	
1	
2	
4	
2	
1	
2	
4	
5	
1	
2	
3	
3	
2	
3	
7	
1	
5	
0	
1	
3	
1	
5	
2	
1	
7	
3	
2	
2	
1	
1	
1	
2	
0	
2	
5	
1	
3	
3	
3	
1	
3	
7	
5	
2	
4	
8	
5	
0	
7	
5	
2	
2	
2	
2	
3	
1	
3	
5	
4	
4	
2	
3	
5	
3	
3	
8	
3	
7	
0	
2	
4	
3	
1	
3	
1	
5	
4	
4	
3	
2	
3	
4	
5	
2	
3	
3	
4	
4	
3	
3	
4	
3	
3	
5	
4	
1	
4	
2	
3	
6	
3	
6	
4	
4	
2	
1	
4	
3	
1	
3	
6	
2	
3	
4	
3	
2	
3	
2	
0	
4	
2	
4	
1	
5	
3	
4	
4	
1	
4	
3	
1	
4	
3	
3	
4	
4	
3	
1	
6	
4	
4	
3	
4	
6	
4	
4	
2	
3	
3	
2	
2	
3	
5	
2	
1	
2	
5	
2	
2	
5	
4	
3	
4	
5	
2	
6	
2	
1	
3	
5	
3	
3	
3	
3	
6	
2	
1	
3	
2	
5	
1	
5	
2	
5	
5	
2	
0	
0	
3	
1	
3	
3	
3	
4	
5	
3	
3	
2	
3	
1	
3	
4	
5	
1	
6	
0	
2	
5	
3	
2	
6	
2	
8	
1	
5	
0	
3	
4	
4	
3	
3	
5	
4	
3	
2	
2	
3	
2	
1	
3	
3	
1	
5	
1	
5	
5	
4	
2	
3	
1	
5	
5	
3	
4	
2	
4	
3	
5	
1	
5	
4	
6	
6	
1	
4	
3	
5	
2	
2	
3	
4	
1	
4	
2	
2	
3	
0	
1	
3	
4	
2	
1	
4	
1	
4	
1	
4	
2	
2	
3	
3	
0	
0	
3	
3	
2	
2	
4	
4	
0	
3	
5	
3	
3	
4	
2	
5	
1	
2	
1	
5	
5	
1	
2	
3	
1	
8	
3	
1	
4	
3	
2	
3	
3	
3	
1	
0	
2	
4	
2	
3	
4	
5	
4	
1	
1	
3	
5	
2	
7	
3	
4	
4	
4	
3	
2	
2	
4	
1	
1	
1	
1	
5	
8	
1	
6	
5	
2	
3	
4	
3	
2	
2	
4	
2	
1	
2	
1	
5	
1	
5	
3	
5	
1	
6	
1	
3	
2	
2	
2	
3	
4	
5	
2	
2	
6	
2	
4	
5	
1	
3	
5	
3	
1	
0	
3	
3	
0	
3	
2	
6	
3	
2	
5	
4	
4	
1	
1	
1	
2	
2	
2	
3	
2	
4	
3	
0	
1	
4	
1	
2	
3	
5	
3	
1	
5	
2	
7	
2	
4	
5	
5	
3	
0	
0	
4	
1	
2	
5	
1	
2	
1	
4	
5	
3	
2	
2	
2	
3	
1	
5	
2	
4	
3	
5	
2	
5	
2	
4	
4	
4	
2	
1	
4	
2	
0	
5	
4	
4	
2	
3	
2	
7	
3	
4	
8	
7	
2	
3	
3	
8	
5	
5	
2	
2	
2	
2	
4	
3	
2	
1	
2	
2	
3	
5	
1	
0	
6	
5	
2	
6	
1	
0	
2	
2	
3	
1	
5	
2	
2	
1	
1	
2	
4	
4	
1	
3	
1	
6	
1	
2	
0	
1	
2	
5	
3	
3	
2	
5	
1	
6	
4	
1	
4	
3	
4	
2	
1	
3	
2	
4	
4	
1	
5	
3	
4	
5	
1	
2	
2	
1	
1	
2	
1	
6	
1	
3	
5	
4	
5	
4	
2	
3	
2	
2	
5	
5	
0	
5	
6	
2	
3	
3	
3	
3	
1	
5	
2	
2	
2	
3	
2	
2	
3	
3	
2	
1	
2	
4	
1	
3	
2	
3	
3	
3	
5	
3	
1	
2	
2	
2	
4	
1	
1	
2	
5	
2	
0	
2	
2	
5	
2	
2	
2	
1	
5	
2	
5	
4	
3	
4	
4	
1	
2	
2	
1	
2	
0	
0	
6	
4	
6	
3	
3	
3	
2	
1	
2	
4	
2	
5	
2	
2	
4	
1	
0	
0	
1	
5	
3	
6	
1	
2	
4	
5	
2	
1	
2	
2	
5	
1	
1	
3	
2	
2	
6	
3	
2	
3	
5	
5	
4	
1	
0	
4	
1	
6	
2	
5	
1	
3	
2	
6	
3	
8	
2	
4	
2	
3	
6	
1	
0	
3	
1	
3	
1	
4	
4	
0	
4	
2	
2	
2	
6	
1	
1	
3	
0	
4	
4	
1	
0	
3	
5	
4	
3	
2	
2	
2	
1	
4	
3	
2	
4	
2	
0	
4	
4	
3	
1	
2	
2	
4	
3	
3	
1	
5	
2	
5	
2	
5	
2	
2	
1	
3	
3	
4	
3	
2	
1	
3	
2	
3	
0	
1	
2	
4	
3	
2	
2	
2	
2	
1	
3	
1	
1	
1	
3	
0	
3	
2	
4	
0	
3	
3	
3	
2	
0	
1	
5	
5	
2	
3	
4	
4	
2	
2	
2	
3	
1	
1	
2	
7	
4	
5	
5	
2	
6	
2	
1	
4	
0	
3	
2	
3	
2	
4	
5	
5	
3	
5	
0	
6	
0	
4	
2	
3	
1	
3	
3	
5	
2	
3	
5	
0	
2	
4	
2	
4	
2	
3	
1	
1	
2	
4	
3	
4	
1	
4	
1	
4	
4	
0	
1	
3	
1	
3	
3	
4	
1	
4	
3	
3	
1	
2	
2	
4	
2	
2	
4	
2	
4	
2	
1	
1	
4	
6	
4	
3	
1	
2	
1	
3	
0	
0	
1	
1	
0	
2	
5	
1	
7	
7	
1	
1	
1	
0	
2	
5	
5	
1	
2	
0	
0	
4	
3	
1	
3	
2	
3	
3	
4	
3	
2	
4	
1	
3	
4	
5	
1	
3	
4	
4	
2	
2	
1	
4	
1	
0	
5	
6	
4	
3	
6	
3	
2	
5	
2	
2	
3	
2	
2	
4	
3	
0	
7	
6	
4	
2	
2	
5	
5	
2	
2	
6	
2	
1	
1	
1	
2	
2	
6	
4	
2	
1	
1	
0	
3	
1	
3	
1	
2	
5	
1	
3	
1	
4	
1	
3	
3	
3	
5	
3	
1	
1	
4	
3	
4	
4	
0	
2	
1	
1	
1	
1	
7	
2	
1	
6	
4	
3	
3	
3	
3	
2	
1	
0	
2	
1	
5	
3	
4	
2	
2	
3	
2	
2	
3	
2	
3	
4	
5	
2	
2	
5	
2	
2	
1	
1	
4	
1	
5	
3	
3	
3	
6	
2	
5	
3	
4	
6	
2	
1	
3	
1	
1	
1	
2	
0	
5	
3	
3	
3	
2	
1	
2	
5	
5	
6	
1	
0	
3	
3	
5	
1	
2	
1	
1	
1	
3	
0	
3	
2	
1	
3	
3	
4	
2	
3	
2	
3	
2	
4	
7	
4	
6	
4	
3	
2	
2	
0	
1	
5	
1	
0	
1	
1	
4	
5	
1	
6	
2	
1	
0	
2	
1	
5	
1	
1	
1	
1	
4	
4	
2	
2	
1	
1	
3	
3	
5	
3	
1	
1	
5	
3	
1	
1	
4	
3	
2	
2	
5	
1	
4	
2	
2	
3	
0	
4	
1	
4	
2	
2	
1	
2	
3	
5	
2	
6	
2	
2	
3	
4	
3	
3	
3	
3	
4	
3	
2	
3	
2	
5	
2	
1	
3	
3	
1	
1	
1	
4	
4	
4	
2	
0	
5	
4	
6	
2	
0	
3	
4	
3	
4	
3	
1	
4	
4	
3	
4	
1	
7	
2	
0	
2	
1	
2	
1	
4	
3	
3	
3	
5	
2	
2	
1	
2	
5	
0	
2	
4	
3	
3	
4	
4	
4	
2	
4	
2	
3	
3	
0	
3	
2	
3	
3	
4	
1	
4	
2	
5	
3	
4	
2	
2	
2	
1	
4	
7	
4	
5	
3	
2	
0	
0	
2	
2	
2	
1	
3	
2	
0	
3	
3	
1	
0	
3	
2	
4	
5	
1	
4	
4	
6	
3	
0	
1	
1	
5	
2	
4	
1	
2	
4	
2	
2	
4	
1	
1	
3	
2	
6	
7	
2	
1	
1	
0	
3	
2	
1	
3	
2	
2	
4	
2	
3	
6	
3	
2	
3	
4	
3	
3	
2	
5	
3	
3	
2	
3	
1	
2	
3	
3	
1	
3	
2	
2	
3	
4	
2	
1	
3	
7	
4	
3	
4	
3	
2	
3	
3	
2	
3	
2	
2	
6	
2	
6	
1	
3	
0	
1	
3	
3	
3	
1	
2	
4	
1	
4	
3	
1	
3	
2	
2	
2	
0	
2	
3	
2	
0	
2	
3	
2	
3	
4	
2	
1	
2	
2	
2	
3	
5	
4	
1	
1	
2	
0	
3	
3	
1	
3	
0	
2	
2	
2	
6	
6	
3	
3	
1	
1	
5	
0	
4	
1	
3	
2	
3	
3	
3	
0	
2	
3	
4	
5	
3	
0	
1	
1	
2	
3	
5	
2	
4	
3	
1	
4	
2	
2	
0	
7	
4	
2	
0	
3	
3	
3	
4	
3	
0	
2	
4	
1	
3	
5	
2	
1	
3	
0	
0	
2	
3	
4	
0	
3	
4	
3	
3	
1	
2	
3	
2	
4	
0	
1	
0	
3	
3	
0	
3	
0	
2	
0	
3	
4	
3	
2	
0	
2	
2	
3	
2	
2	
4	
7	
2	
1	
0	
0	
3	
1	
3	
1	
1	
2	
1	
0	
1	
0	
4	
3	
1	
2	
2	
3	
3	
2	
1	
4	
1	
3	
2	
1	
2	
1	
1	
3	
4	
0	
3	
2	
4	
1	
2	
1	
2	
4	
1	
3	
1	
1	
3	
2	
6	
1	
5	
1	
1	
1	
1	
4	
2	
5	
4	
2	
3	
3	
4	
2	
3	
2	
5	
2	
1	
2	
2	
3	
4	
0	
2	
3	
2	
1	
4	
0	
1	
1	
2	
1	
1	
3	
3	
2	
1	
1	
3	
0	
2	
4	
2	
4	
2	
1	
1	
2	
1	
5	
2	
3	
3	
0	
2	
0	
1	
8	
0	
4	
3	
4	
6	
3	
3	
9	
3	
2	
3	
1	
2	
2	
2	
1	
4	
1	
0	
3	
1	
7	
1	
0	
0	
0	
2	
2	
2	
1	
4	
1	
1	
1	
3	
5	
1	
3	
2	
1	
3	
3	
2	
1	
5	
5	
2	
0	
4	
1	
3	
1	
3	
3	
3	
3	
2	
2	
4	
0	
3	
3	
2	
3	
2	
2	
0	
3	
4	
4	
3	
5	
2	
3	
4	
3	
3	
3	
1	
3	
3	
3	
1	
2	
3	
3	
4	
0	
3	
5	
3	
2	
2	
4	
4	
1	
1	
1	
1	
2	
3	
2	
1	
5	
5	
4	
2	
1	
0	
3	
4	
0	
5	
2	
3	
4	
4	
0	
4	
3	
7	
0	
3	
2	
2	
1	
2	
3	
3	
2	
3	
2	
1	
3	
2	
3	
0	
2	
2	
4	
4	
2	
2	
0	
4	
4	
2	
2	
0	
4	
3	
3	
1	
2	
2	
4	
1	
3	
1	
4	
4	
3	
2	
3	
2	
8	
2	
1	
2	
5	
6	
6	
1	
5	
2	
1	
1	
4	
3	
1	
1	
3	
1	
2	
2	
5	
3	
2	
1	
5	
2	
2	
2	
5	
3	
4	
0	
2	
4	
2	
3	
1	
1	
4	
2	
2	
0	
4	
0	
0	
3	
0	
1	
7	
3	
1	
1	
3	
1	
1	
4	
2	
0	
7	
5	
3	
0	
4	
4	
2	
1	
3	
4	
2	
3	
4	
3	
2	
2	
2	
4	
1	
1	
2	
3	
3	
2	
1	
2	
8	
3	
3	
1	
0	
4	
4	
1	
1	
3	
3	
3	
1	
4	
0	
3	
1	
0	
0	
0	
2	
3	
3	
3	
1	
3	
5	
1	
1	
1	
2	
2	
3	
2	
1	
2	
3	
0	
1	
1	
2	
4	
5	
1	
1	
3	
2	
5	
0	
1	
0	
2	
2	
3	
1	
1	
3	
2	
1	
1	
2	
4	
1	
4	
1	
2	
1	
2	
5	
4	
0	
0	
4	
2	
0	
1	
2	
3	
2	
1	
3	
0	
4	
0	
1	
1	
4	
4	
1	
3	
3	
2	
4	
1	
4	
3	
3	
2	
2	
5	
0	
3	
1	
3	
4	
1	
3	
2	
3	
0	
3	
1	
2	
3	
6	
2	
1	
1	
1	
5	
2	
1	
5	
2	
2	
2	
3	
0	
2	
3	
1	
2	
0	
3	
2	
3	
0	
3	
4	
0	
0	
2	
2	
4	
1	
3	
0	
3	
3	
3	
3	
3	
2	
2	
5	
1	
2	
1	
3	
0	
0	
3	
3	
2	
1	
3	
3	
2	
2	
6	
5	
6	
2	
1	
0	
4	
5	
2	
2	
2	
0	
3	
3	
2	
1	
3	
6	
1	
2	
3	
2	
4	
4	
3	
5	
1	
1	
1	
3	
3	
4	
2	
1	
0	
2	
3	
3	
3	
1	
3	
0	
1	
1	
1	
7	
1	
3	
2	
2	
2	
4	
2	
1	
3	
2	
1	
4	
3	
3	
2	
4	
2	
6	
1	
4	
0	
3	
0	
2	
2	
1	
1	
1	
3	
5	
1	
3	
1	
2	
2	
2	
4	
1	
3	
1	
1	
2	
4	
5	
3	
1	
4	
3	
2	
4	
1	
3	
3	
1	
2	
3	
4	
3	
5	
3	
2	
3	
6	
2	
4	
1	
3	
4	
3	
7	
2	
4	
4	
6	
1	
1	
5	
1	
2	
1	
0	
2	
3	
4	
1	
1	
2	
1	
2	
2	
2	
0	
1	
3	
4	
3	
2	
1	
3	
1	
3	
4	
2	
6	
4	
6	
3	
0	
1	
3	
1	
2	
4	
2	
3	
1	
9	
1	
0	
1	
3	
1	
2	
0	
3	
1	
4	
4	
3	
2	
4	
1	
0	
3	
3	
2	
4	
1	
2	
2	
2	
0	
1	
2	
5	
6	
1	
0	
5	
0	
2	
1	
2	
1	
0	
0	
3	
2	
3	
2	
1	
4	
1	
3	
3	
3	
1	
3	
1	
2	
3	
5	
2	
1	
4	
5	
1	
5	
5	
3	
2	
1	
4	
2	
2	
2	
1	
2	
1	
1	
1	
4	
2	
3	
1	
0	
8	
5	
3	
0	
1	
3	
2	
3	
3	
1	
3	
2	
2	
1	
0	
4	
2	
2	
2	
5	
2	
2	
2	
2	
3	
3	
1	
3	
2	
3	
5	
1	
1	
6	
2	
2	
4	
6	
1	
1	
1	
1	
2	
1	
2	
2	
4	
7	
0	
1	
2	
4	
1	
2	
3	
0	
3	
4	
2	
4	
1	
0	
2	
1	
1	
3	
2	
1	
0	
4	
3	
4	
0	
2	
5	
3	
2	
1	
4	
6	
2	
2	
3	
1	
2	
1	
4	
2	
2	
3	
2	
4	
2	
1	
2	
4	
3	
1	
2	
2	
5	
1	
2	
3	
4	
3	
2	
2	
1	
2	
1	
2	
2	
2	
1	
0	
4	
3	
3	
0	
1	
2	
5	
4	
6	
2	
4	
1	
2	
3	
1	
2	
2	
4	
2	
4	
2	
6	
3	
2	
1	
4	
3	
0	
1	
6	
3	
2	
1	
1	
2	
3	
2	
3	
2	
0	
4	
2	
3	
2	
1	
1	
1	
0	
2	
2	
1	
1	
3	
1	
3	
0	
5	
1	
2	
1	
3	
3	
3	
4	
5	
3	
1	
1	
1	
1	
2	
5	
2	
2	
2	
3	
1	
1	
1	
6	
3	
0	
5	
2	
0	
3	
1	
2	
1	
1	
2	
3	
3	
1	
1	
1	
1	
2	
6	
2	
0	
2	
2	
2	
2	
2	
5	
3	
0	
3	
1	
1	
3	
4	
1	
1	
3	
4	
3	
1	
2	
1	
1	
1	
2	
0	
0	
4	
1	
2	
3	
2	
1	
1	
3	
1	
5	
2	
4	
2	
6	
3	
0	
2	
3	
3	
1	
3	
0	
6	
1	
2	
1	
1	
2	
2	
1	
2	
3	
0	
2	
3	
1	
1	
0	
1	
2	
2	
3	
2	
2	
1	
1	
1	
1	
5	
0	
3	
2	
3	
3	
1	
2	
3	
2	
0	
5	
3	
2	
2	
1	
3	
3	
3	
3	
3	
5	
1	
1	
2	
4	
4	
2	
0	
0	
1	
4	
3	
4	
2	
3	
2	
0	
1	
0	
2	
3	
0	
3	
3	
2	
1	
1	
1	
3	
3	
2	
6	
0	
2	
0	
5	
1	
3	
1	
3	
1	
5	
3	
2	
0	
0	
1	
1	
1	
3	
1	
0	
4	
3	
2	
3	
2	
3	
1	
3	
3	
1	
4	
2	
2	
3	
1	
3	
1	
2	
1	
6	
4	
2	
3	
0	
2	
1	
2	
1	
0	
5	
4	
1	
3	
1	
4	
0	
0	
4	
2	
0	
4	
3	
3	
2	
3	
2	
2	
2	
1	
2	
0	
1	
1	
3	
5	
1	
1	
5	
1	
4	
2	
3	
2	
2	
4	
2	
1	
2	
2	
1	
3	
0	
3	
1	
1	
5	
3	
1	
1	
2	
4	
0	
4	
3	
3	
2	
2	
0	
2	
4	
1	
3	
1	
0	
1	
3	
4	
3	
1	
2	
0	
2	
2	
0	
2	
0	
2	
1	
1	
5	
2	
0	
6	
4	
2	
0	
2	
1	
0	
0	
0	
5	
0	
2	
2	
2	
3	
2	
2	
1	
0	
3	
1	
1	
0	
2	
2	
2	
3	
1	
0	
0	
1	
1	
1	
3	
2	
1	
1	
2	
2	
1	
4	
5	
2	
1	
0	
2	
5	
3	
2	
1	
2	
2	
4	
2	
3	
3	
3	
5	
3	
2	
5	
3	
4	
1	
2	
1	
1	
1	
2	
1	
0	
3	
3	
2	
1	
2	
2	
1	
1	
2	
5	
2	
2	
1	
1	
1	
1	
3	
2	
0	
3	
0	
5	
2	
3	
1	
3	
5	
1	
3	
5	
4	
2	
3	
2	
3	
5	
5	
1	
3	
1	
4	
0	
2	
3	
1	
4	
3	
1	
1	
5	
3	
3	
5	
1	
2	
4	
5	
1	
3	
2	
3	
3	
4	
0	
1	
5	
2	
3	
3	
1	
3	
1	
2	
2	
5	
1	
2	
1	
3	
2	
2	
3	
2	
0	
4	
2	
1	
4	
0	
8	
1	
4	
3	
1	
0	
4	
3	
2	
0	
0	
3	
3	
4	
4	
4	
3	
2	
0	
4	
1	
2	
2	
5	
1	
2	
1	
4	
0	
2	
2	
1	
2	
1	
2	
1	
3	
3	
3	
2	
3	
1	
4	
1	
2	
0	
4	
2	
4	
0	
3	
1	
3	
0	
4	
0	
3	
4	
1	
2	
2	
4	
2	
1	
2	
3	
1	
1	
4	
1	
2	
1	
3	
1	
1	
2	
3	
1	
2	
2	
0	
3	
4	
2	
1	
2	
4	
0	
5	
4	
3	
4	
3	
0	
2	
1	
1	
2	
5	
0	
1	
2	
2	
2	
6	
1	
1	
1	
1	
1	
3	
0	
3	
1	
2	
2	
2	
2	
0	
3	
1	
1	
2	
3	
5	
3	
2	
4	
0	
3	
1	
2	
1	
2	
1	
3	
4	
4	
2	
3	
1	
4	
3	
3	
2	
3	
2	
3	
2	
1	
2	
4	
2	
5	
0	
1	
2	
2	
3	
0	
1	
3	
2	
2	
4	
0	
0	
3	
0	
1	
3	
1	
5	
3	
0	
2	
2	
2	
2	
4	
2	
5	
1	
3	
2	
6	
3	
3	
5	
4	
4	
0	
3	
4	
5	
3	
1	
3	
4	
1	
2	
4	
1	
0	
4	
2	
1	
2	
2	
7	
4	
2	
0	
1	
2	
3	
2	
2	
4	
4	
4	
1	
0	
3	
5	
3	
1	
4	
5	
5	
2	
1	
5	
2	
1	
1	
3	
0	
6	
3	
3	
4	
2	
2	
4	
2	
1	
2	
1	
1	
4	
1	
1	
0	
2	
0	
0	
2	
2	
5	
2	
0	
4	
3	
1	
0	
3	
1	
3	
0	
2	
1	
1	
4	
1	
2	
3	
4	
3	
2	
2	
2	
3	
1	
1	
0	
1	
4	
0	
1	
4	
2	
1	
1	
3	
2	
2	
4	
1	
0	
2	
1	
2	
3	
3	
1	
1	
2	
3	
0	
3	
3	
3	
3	
2	
0	
1	
3	
5	
3	
1	
2	
2	
0	
1	
3	
1	
0	
1	
2	
4	
2	
3	
4	
1	
2	
5	
3	
0	
2	
1	
2	
0	
0	
1	
0	
5	
0	
3	
1	
3	
0	
1	
1	
1	
1	
2	
0	
3	
1	
3	
4	
4	
6	
3	
2	
3	
4	
1	
2	
2	
3	
2	
6	
1	
3	
3	
2	
0	
1	
3	
1	
3	
5	
1	
2	
2	
2	
2	
4	
4	
3	
3	
1	
1	
2	
0	
3	
0	
3	
4	
1	
2	
2	
2	
0	
2	
4	
1	
3	
2	
0	
3	
1	
3	
3	
2	
3	
2	
2	
1	
1	
2	
3	
4	
2	
4	
1	
3	
1	
4	
2	
0	
3	
4	
2	
1	
2	
0	
2	
3	
1	
4	
2	
0	
1	
2	
5	
1	
2	
3	
1	
5	
4	
1	
3	
1	
1	
2	
1	
1	
3	
1	
1	
1	
1	
2	
1	
2	
1	
1	
2	
2	
3	
3	
3	
3	
1	
0	
2	
3	
1	
4	
1	
4	
3	
1	
0	
2	
3	
5	
3	
1	
2	
0	
2	
3	
2	
4	
4	
4	
3	
0	
2	
7	
0	
4	
1	
1	
3	
4	
3	
1	
4	
2	
1	
2	
1	
2	
4	
2	
1	
3	
3	
3	
4	
3	
0	
3	
4	
3	
2	
2	
2	
1	
1	
4	
3	
3	
5	
5	
1	
4	
3	
1	
1	
5	
1	
2	
4	
2	
3	
2	
4	
2	
1	
2	
3	
2	
2	
2	
2	
3	
1	
1	
4	
2	
3	
4	
4	
4	
3	
3	
2	
2	
2	
2	
0	
3	
1	
2	
1	
2	
1	
1	
2	
3	
2	
5	
0	
3	
1	
1	
3	
3	
1	
3	
0	
2	
1	
2	
4	
2	
1	
6	
4	
4	
3	
0	
1	
2	
1	
3	
2	
2	
3	
4	
3	
1	
2	
1	
1	
2	
2	
1	
4	
5	
0	
1	
1	
2	
2	
2	
4	
5	
5	
1	
4	
2	
4	
1	
4	
1	
3	
1	
1	
0	
4	
3	
4	
3	
5	
0	
5	
3	
3	
2	
3	
7	
3	
4	
0	
1	
1	
5	
2	
3	
1	
3	
1	
3	
3	
3	
1	
1	
1	
2	
2	
2	
2	
4	
2	
1	
1	
6	
3	
0	
2	
2	
4	
1	
4	
0	
3	
0	
1	
6	
1	
5	
3	
1	
1	
4	
0	
3	
2	
5	
1	
2	
0	
2	
1	
6	
6	
1	
2	
1	
4	
2	
1	
4	
3	
3	
2	
1	
2	
3	
0	
2	
1	
2	
3	
2	
1	
3	
1	
2	
2	
2	
1	
1	
2	
1	
3	
1	
1	
2	
0	
1	
2	
5	
4	
2	
1	
2	
3	
0	
2	
1	
3	
3	
2	
2	
2	
1	
2	
1	
2	
1	
2	
0	
4	
0	
3	
6	
4	
1	
0	
3	
1	
4	
0	
4	
2	
4	
1	
1	
4	
1	
1	
2	
1	
2	
1	
3	
3	
2	
3	
1	
1	
2	
2	
2	
4	
2	
0	
4	
4	
2	
3	
3	
2	
3	
0	
1	
4	
3	
2	
0	
2	
3	
4	
2	
0	
3	
4	
4	
0	
1	
1	
0	
3	
0	
2	
4	
1	
1	
2	
1	
3	
5	
2	
2	
5	
1	
2	
3	
3	
3	
0	
1	
0	
2	
1	
0	
1	
2	
2	
1	
3	
1	
3	
4	
1	
1	
1	
1	
0	
3	
1	
2	
4	
6	
0	
1	
2	
1	
4	
1	
1	
3	
1	
0	
2	
2	
2	
5	
6	
2	
1	
0	
0	
2	
2	
0	
4	
3	
0	
2	
1	
1	
1	
0	
1	
1	
3	
2	
4	
3	
3	
1	
0	
2	
2	
1	
2	
2	
2	
0	
5	
2	
2	
3	
1	
0	
1	
1	
2	
1	
1	
3	
3	
3	
2	
4	
3	
2	
5	
2	
5	
3	
2	
2	
4	
2	
1	
2	
3	
6	
2	
3	
1	
5	
0	
2	
0	
2	
1	
3	
1	
3	
1	
1	
5	
1	
0	
2	
2	
3	
3	
4	
2	
3	
0	
1	
4	
2	
0	
2	
2	
3	
0	
2	
1	
0	
2	
1	
2	
3	
2	
3	
3	
2	
1	
2	
3	
1	
2	
1	
2	
1	
3	
4	
1	
1	
3	
3	
1	
5	
3	
2	
2	
0	
3	
2	
2	
4	
3	
2	
1	
3	
2	
1	
2	
3	
2	
1	
2	
4	
1	
2	
1	
3	
2	
3	
2	
2	
4	
5	
3	
2	
2	
2	
3	
1	
2	
5	
1	
0	
2	
1	
1	
3	
2	
1	
2	
0	
1	
1	
2	
2	
2	
4	
4	
1	
5	
3	
4	
1	
2	
2	
3	
2	
6	
1	
1	
4	
1	
3	
1	
3	
2	
2	
1	
1	
1	
3	
3	
3	
6	
3	
3	
3	
1	
0	
2	
3	
0	
2	
0	
3	
3	
1	
2	
2	
4	
1	
1	
3	
5	
1	
3	
2	
4	
5	
1	
0	
3	
0	
4	
4	
4	
3	
1	
2	
1	
3	
3	
0	
0	
3	
3	
1	
1	
0	
5	
1	
4	
0	
0	
5	
2	
3	
2	
1	
0	
2	
1	
2	
3	
3	
0	
2	
0	
3	
2	
2	
3	
4	
3	
3	
2	
3	
0	
1	
1	
1	
2	
2	
3	
4	
2	
6	
3	
3	
1	
1	
0	
2	
2	
3	
5	
0	
2	
4	
3	
1	
2	
2	
2	
0	
4	
3	
1	
2	
1	
2	
2	
3	
5	
3	
5	
0	
3	
5	
2	
1	
0	
2	
2	
0	
0	
0	
1	
0	
1	
4	
3	
3	
2	
1	
4	
0	
6	
3	
3	
2	
1	
5	
5	
3	
1	
4	
2	
1	
1	
5	
3	
3	
3	
1	
3	
3	
2	
2	
5	
2	
2	
2	
2	
3	
3	
4	
0	
2	
1	
4	
0	
1	
1	
1	
3	
2	
4	
2	
4	
4	
2	
1	
3	
2	
2	
1	
3	
2	
2	
2	
4	
0	
2	
1	
3	
5	
3	
2	
1	
3	
1	
3	
1	
1	
2	
2	
2	
3	
2	
3	
1	
2	
1	
2	
2	
2	
5	
6	
1	
2	
2	
2	
0	
3	
0	
1	
2	
0	
2	
4	
3	
3	
1	
2	
0	
2	
5	
3	
1	
3	
0	
1	
2	
5	
3	
1	
5	
5	
4	
2	
0	
3	
2	
3	
0	
8	
3	
1	
2	
5	
2	
4	
3	
3	
1	
1	
3	
0	
4	
2	
2	
1	
2	
1	
1	
2	
1	
2	
2	
1	
3	
0	
3	
2	
1	
3	
2	
0	
3	
3	
8	
2	
1	
4	
2	
1	
0	
3	
3	
2	
1	
1	
1	
1	
3	
2	
1	
3	
1	
2	
0	
3	
3	
4	
5	
2	
3	
5	
1	
0	
1	
0	
1	
3	
2	
1	
2	
8	
3	
2	
3	
3	
2	
0	
1	
2	
2	
0	
2	
2	
3	
0	
1	
2	
0	
1	
3	
2	
1	
1	
1	
2	
3	
0	
4	
0	
2	
4	
4	
5	
2	
2	
1	
3	
1	
2	
0	
1	
0	
3	
0	
7	
1	
3	
3	
4	
3	
0	
2	
5	
1	
0	
3	
2	
0	
1	
2	
0	
1	
2	
4	
4	
1	
0	
2	
4	
7	
2	
3	
1	
3	
2	
0	
4	
1	
3	
2	
2	
4	
0	
0	
1	
0	
2	
4	
5	
1	
5	
2	
0	
0	
5	
1	
1	
2	
1	
2	
1	
1	
2	
2	
2	
4	
2	
2	
1	
0	
4	
2	
5	
3	
2	
2	
2	
3	
1	
1	
3	
3	
1	
1	
1	
3	
4	
2	
3	
2	
3	
2	
0	
3	
1	
4	
3	
1	
2	
2	
3	
1	
3	
2	
2	
0	
3	
1	
2	
2	
1	
3	
2	
2	
1	
3	
0	
3	
3	
0	
4	
2	
5	
1	
1	
2	
1	
1	
2	
3	
5	
1	
3	
4	
1	
1	
2	
2	
1	
0	
2	
3	
3	
3	
3	
3	
2	
4	
1	
4	
2	
3	
1	
1	
4	
0	
5	
3	
1	
1	
4	
1	
2	
4	
3	
1	
1	
3	
3	
0	
3	
3	
2	
2	
2	
3	
3	
2	
3	
3	
3	
3	
3	
0	
0	
3	
1	
4	
2	
3	
5	
2	
1	
3	
2	
3	
0	
4	
1	
2	
4	
2	
1	
5	
2	
6	
1	
1	
5	
3	
3	
1	
0	
2	
0	
0	
2	
4	
2	
1	
3	
2	
0	
3	
0	
4	
3	
3	
4	
1	
3	
2	
3	
0	
3	
2	
2	
3	
0	
2	
2	
5	
0	
5	
1	
0	
1	
0	
3	
1	
1	
5	
7	
1	
0	
1	
0	
2	
1	
5	
1	
2	
2	
2	
4	
2	
1	
2	
4	
2	
3	
1	
5	
3	
2	
2	
2	
2	
3	
3	
5	
1	
1	
3	
5	
1	
3	
3	
3	
1	
1	
2	
1	
1	
2	
4	
3	
0	
2	
4	
3	
2	
3	
4	
0	
1	
3	
1	
3	
3	
1	
7	
0	
4	
0	
0	
4	
1	
2	
2	
2	
2	
1	
3	
1	
0	
3	
2	
4	
1	
0	
5	
1	
1	
2	
2	
2	
1	
0	
1	
3	
2	
2	
2	
2	
2	
0	
3	
3	
3	
3	
3	
2	
0	
2	
1	
1	
3	
3	
2	
1	
1	
1	
6	
2	
3	
2	
2	
1	
2	
0	
3	
0	
2	
2	
4	
3	
0	
1	
0	
2	
3	
0	
1	
1	
0	
4	
0	
0	
3	
3	
3	
3	
1	
1	
3	
2	
1	
0	
4	
3	
1	
1	
1	
2	
5	
1	
3	
0	
1	
0	
1	
3	
4	
0	
0	
2	
1	
4	
3	
1	
3	
2	
2	
1	
1	
3	
1	
0	
5	
2	
4	
2	
2	
2	
1	
1	
2	
4	
2	
2	
0	
5	
0	
1	
1	
0	
4	
2	
1	
1	
6	
2	
2	
1	
2	
1	
3	
3	
1	
0	
0	
1	
3	
3	
4	
6	
2	
2	
1	
1	
3	
3	
1	
2	
3	
0	
0	
6	
1	
3	
0	
1	
2	
1	
0	
1	
1	
2	
3	
0	
3	
2	
4	
2	
1	
3	
1	
1	
3	
0	
0	
0	
4	
1	
1	
5	
0	
4	
2	
3	
3	
0	
1	
2	
2	
1	
0	
1	
4	
3	
3	
3	
0	
1	
3	
1	
4	
5	
3	
4	
3	
2	
0	
2	
1	
5	
6	
1	
4	
3	
1	
2	
2	
1	
3	
2	
2	
1	
6	
2	
3	
5	
0	
1	
3	
2	
1	
2	
2	
1	
0	
3	
1	
2	
3	
1	
1	
7	
3	
4	
1	
4	
1	
3	
4	
3	
1	
2	
1	
1	
3	
1	
0	
2	
1	
3	
0	
0	
3	
1	
1	
3	
1	
2	
2	
2	
0	
4	
2	
2	
0	
1	
2	
4	
3	
1	
0	
4	
2	
3	
2	
2	
2	
1	
1	
3	
3	
3	
1	
1	
2	
1	
1	
2	
3	
1	
1	
2	
3	
4	
1	
2	
1	
1	
1	
3	
4	
1	
1	
4	
3	
5	
2	
0	
4	
1	
3	
2	
0	
3	
2	
0	
2	
3	
2	
1	
2	
0	
2	
2	
3	
1	
4	
2	
1	
4	
3	
0	
2	
2	
1	
0	
1	
4	
1	
1	
2	
0	
1	
1	
2	
6	
5	
1	
4	
1	
4	
0	
1	
3	
3	
1	
5	
1	
3	
1	
1	
1	
2	
1	
2	
0	
1	
0	
1	
1	
2	
4	
2	
1	
0	
1	
3	
3	
2	
1	
1	
6	
1	
1	
1	
3	
3	
1	
1	
4	
1	
1	
1	
2	
0	
6	
4	
1	
3	
1	
0	
3	
0	
6	
8	
3	
2	
3	
0	
2	
1	
7	
1	
2	
3	
1	
3	
1	
2	
2	
2	
1	
5	
2	
3	
0	
1	
2	
2	
1	
1	
1	
3	
1	
3	
1	
1	
6	
1	
2	
0	
0	
1	
1	
2	
3	
1	
5	
2	
2	
2	
1	
2	
0	
1	
0	
3	
4	
1	
3	
1	
5	
1	
0	
3	
1	
0	
3	
0	
3	
1	
3	
0	
4	
2	
2	
2	
3	
2	
4	
2	
0	
4	
1	
2	
6	
1	
1	
4	
2	
2	
5	
2	
4	
2	
1	
1	
4	
1	
1	
1	
5	
0	
2	
4	
3	
1	
2	
7	
1	
1	
3	
3	
2	
4	
2	
2	
1	
1	
2	
2	
4	
1	
2	
3	
3	
1	
2	
2	
1	
5	
3	
1	
2	
0	
8	
2	
3	
2	
2	
1	
2	
2	
4	
5	
1	
0	
4	
2	
3	
3	
1	
3	
1	
0	
1	
1	
1	
2	
0	
2	
0	
5	
2	
2	
1	
2	
3	
2	
2	
3	
2	
1	
2	
4	
2	
3	
0	
2	
2	
1	
4	
2	
3	
1	
2	
2	
8	
6	
0	
5	
4	
5	
2	
4	
1	
2	
2	
2	
3	
1	
0	
3	
3	
3	
2	
0	
2	
0	
3	
3	
2	
4	
2	
4	
3	
3	
1	
2	
2	
2	
1	
3	
0	
3	
4	
3	
2	
2	
4	
1	
3	
3	
2	
2	
2	
0	
4	
1	
1	
0	
1	
1	
0	
2	
1	
4	
4	
0	
2	
3	
4	
2	
0	
3	
2	
1	
5	
3	
1	
2	
2	
3	
4	
2	
1	
3	
1	
3	
3	
0	
2	
0	
2	
0	
0	
2	
1	
2	
1	
0	
3	
3	
2	
3	
1	
5	
3	
0	
5	
1	
1	
3	
0	
1	
1	
3	
4	
1	
0	
4	
1	
3	
1	
3	
1	
3	
1	
2	
2	
3	
1	
3	
5	
3	
1	
0	
3	
0	
4	
1	
0	
2	
4	
0	
3	
4	
0	
1	
7	
5	
1	
0	
2	
1	
2	
1	
1	
2	
3	
2	
1	
2	
4	
2	
4	
0	
0	
2	
1	
2	
1	
4	
0	
2	
2	
3	
2	
0	
4	
0	
1	
1	
1	
1	
1	
1	
0	
5	
3	
1	
1	
1	
3	
2	
2	
2	
3	
3	
0	
4	
2	
2	
3	
1	
3	
2	
1	
2	
3	
4	
2	
2	
1	
1	
1	
4	
3	
4	
3	
4	
6	
1	
4	
1	
3	
2	
7	
5	
0	
2	
2	
4	
3	
2	
3	
5	
2	
3	
2	
1	
1	
7	
3	
5	
2	
3	
1	
2	
3	
0	
1	
4	
4	
4	
4	
2	
2	
2	
3	
3	
0	
1	
4	
0	
0	
3	
0	
0	
2	
2	
4	
2	
4	
0	
4	
2	
5	
6	
1	
1	
2	
2	
3	
2	
5	
2	
2	
1	
2	
4	
2	
2	
2	
2	
3	
1	
3	
1	
1	
2	
4	
3	
2	
3	
3	
0	
4	
0	
2	
1	
2	
5	
3	
3	
3	
4	
2	
4	
0	
2	
0	
0	
0	
0	
0	
0	
0	
0	
0	
0	
0	
0	
0	
0	
0	
0	
0	
0	
0	
0	
0	
0	
