#PicoHarp 300  Histogram Data			02/27/2023 02:56:46 PM
#channels per curve
3907
#display curve no.
0	
#memory block no.
0	
#ns/channel
0.1280	
#counts
5	
2	
1	
1	
4	
1	
4	
1	
1	
1	
4	
3	
0	
2	
0	
3	
0	
3	
3	
2	
6	
5	
3	
4	
2	
2	
6	
2	
2	
4	
7	
4	
2	
3	
7	
6	
4	
2	
1	
0	
2	
4	
2	
4	
5	
3	
3	
2	
4	
2	
2	
6	
3	
2	
2	
2	
2	
6	
1	
4	
4	
5	
2	
2	
3	
1	
7	
3	
1	
2	
3	
3	
2	
2	
7	
2	
4	
3	
5	
5	
2	
5	
2	
2	
3	
2	
2	
1	
4	
3	
2	
2	
6	
1	
1	
0	
4	
5	
1	
2	
2	
2	
4	
3	
7	
3	
5	
1	
3	
4	
1	
4	
1	
5	
2	
1	
0	
4	
4	
2	
3	
1	
8	
0	
5	
1	
6	
1	
2	
3	
2	
5	
4	
3	
2	
4	
2	
4	
5	
5	
0	
3	
1	
2	
4	
4	
3	
3	
4	
3	
2	
4	
3	
2	
2	
5	
3	
2	
3	
4	
1	
2	
3	
4	
4	
4	
4	
5	
3	
4	
4	
1	
4	
6	
2	
2	
2	
2	
2	
3	
2	
2	
2	
1	
1	
1	
1	
3	
5	
6	
1	
2	
2	
4	
2	
0	
4	
4	
2	
2	
5	
5	
1	
1	
3	
7	
1	
3	
3	
2	
0	
0	
5	
3	
1	
2	
1	
1	
0	
1	
6	
2	
5	
1	
2	
1	
1	
4	
1	
4	
1	
4	
6	
5	
4	
5	
2	
6	
5	
1	
3	
2	
5	
2	
18	
60	
132	
193	
235	
323	
316	
379	
400	
365	
376	
392	
383	
364	
370	
361	
338	
313	
321	
327	
281	
316	
330	
322	
302	
274	
277	
275	
282	
284	
271	
277	
292	
261	
274	
240	
234	
251	
252	
247	
283	
207	
235	
256	
257	
236	
230	
222	
216	
258	
222	
225	
232	
220	
210	
187	
224	
207	
200	
200	
218	
204	
198	
190	
198	
197	
199	
210	
197	
190	
212	
188	
202	
190	
186	
190	
207	
203	
184	
169	
186	
175	
186	
179	
173	
171	
187	
183	
167	
169	
177	
164	
171	
170	
139	
155	
179	
184	
170	
152	
164	
182	
179	
161	
147	
151	
160	
138	
139	
169	
153	
127	
142	
150	
146	
159	
147	
125	
127	
134	
140	
146	
153	
143	
162	
116	
116	
141	
137	
139	
136	
134	
122	
126	
137	
134	
132	
129	
136	
137	
125	
107	
114	
116	
107	
113	
134	
121	
106	
123	
115	
114	
112	
106	
125	
106	
100	
122	
107	
110	
118	
107	
111	
104	
114	
95	
104	
109	
99	
114	
118	
94	
95	
96	
93	
73	
109	
88	
107	
108	
92	
101	
95	
85	
106	
99	
111	
106	
89	
101	
101	
92	
86	
99	
110	
87	
85	
116	
102	
84	
82	
96	
88	
102	
95	
94	
84	
117	
95	
84	
82	
81	
73	
77	
79	
97	
72	
89	
82	
95	
77	
75	
93	
84	
62	
72	
81	
92	
83	
74	
74	
82	
63	
62	
72	
83	
84	
78	
74	
86	
76	
79	
70	
64	
77	
73	
77	
78	
59	
74	
87	
78	
66	
83	
62	
67	
72	
85	
68	
66	
53	
71	
57	
59	
61	
77	
58	
69	
64	
70	
53	
68	
46	
68	
52	
55	
56	
57	
67	
57	
51	
49	
70	
74	
57	
70	
54	
77	
64	
55	
66	
72	
71	
56	
46	
80	
43	
49	
60	
47	
52	
62	
52	
50	
54	
52	
65	
73	
44	
52	
50	
45	
60	
61	
41	
47	
59	
55	
48	
49	
54	
53	
39	
40	
52	
51	
56	
45	
74	
44	
58	
46	
49	
50	
55	
46	
36	
50	
61	
59	
42	
51	
43	
58	
40	
49	
35	
60	
50	
60	
49	
45	
37	
60	
53	
44	
49	
36	
47	
51	
57	
24	
47	
53	
44	
49	
38	
45	
41	
33	
35	
44	
35	
34	
44	
39	
46	
40	
42	
46	
37	
45	
31	
39	
38	
41	
36	
37	
41	
40	
38	
42	
41	
48	
35	
44	
36	
31	
34	
30	
35	
42	
30	
40	
46	
42	
34	
39	
25	
26	
38	
27	
35	
36	
38	
34	
35	
41	
30	
35	
40	
42	
38	
23	
36	
29	
42	
29	
37	
32	
37	
30	
47	
35	
25	
49	
34	
46	
33	
47	
36	
32	
36	
31	
27	
29	
29	
36	
29	
23	
35	
34	
40	
33	
29	
33	
31	
29	
31	
25	
28	
29	
27	
28	
25	
19	
28	
31	
42	
30	
34	
36	
22	
25	
29	
18	
34	
23	
32	
30	
25	
38	
21	
25	
21	
19	
37	
36	
28	
30	
36	
23	
27	
20	
32	
16	
19	
21	
22	
24	
25	
29	
31	
32	
22	
21	
17	
25	
30	
26	
28	
31	
30	
24	
24	
18	
30	
16	
31	
21	
27	
23	
30	
24	
25	
27	
23	
21	
25	
19	
19	
26	
22	
11	
27	
22	
21	
26	
21	
28	
16	
25	
25	
21	
20	
25	
20	
26	
20	
21	
19	
20	
24	
23	
19	
28	
21	
21	
17	
19	
30	
25	
28	
16	
19	
16	
18	
23	
17	
15	
17	
23	
20	
22	
21	
24	
16	
21	
17	
20	
15	
20	
23	
23	
27	
12	
18	
19	
17	
18	
21	
10	
18	
14	
26	
22	
14	
14	
17	
14	
20	
21	
25	
16	
15	
24	
15	
18	
22	
29	
19	
20	
16	
17	
21	
16	
17	
17	
14	
9	
14	
19	
17	
21	
16	
9	
16	
29	
19	
26	
17	
10	
12	
13	
15	
14	
21	
19	
16	
17	
19	
20	
17	
10	
23	
17	
18	
13	
10	
20	
15	
18	
18	
17	
24	
14	
16	
13	
12	
17	
16	
11	
15	
18	
15	
13	
17	
20	
18	
16	
17	
15	
19	
12	
12	
20	
20	
13	
20	
19	
11	
14	
21	
6	
18	
14	
19	
11	
17	
17	
12	
11	
11	
14	
20	
10	
12	
13	
12	
11	
10	
15	
17	
17	
14	
8	
15	
16	
17	
17	
24	
14	
15	
21	
20	
19	
16	
15	
11	
13	
17	
11	
10	
19	
14	
18	
13	
10	
9	
14	
13	
10	
13	
6	
15	
12	
11	
14	
9	
15	
20	
10	
8	
20	
9	
17	
13	
9	
11	
15	
11	
14	
20	
17	
8	
19	
10	
8	
15	
14	
18	
11	
15	
10	
15	
11	
10	
10	
15	
12	
13	
14	
13	
16	
9	
11	
12	
16	
12	
15	
6	
17	
15	
12	
7	
4	
9	
8	
16	
13	
9	
14	
12	
15	
18	
12	
11	
13	
6	
15	
7	
11	
14	
14	
8	
10	
19	
14	
16	
9	
10	
8	
12	
10	
13	
17	
17	
11	
9	
15	
21	
14	
12	
8	
14	
7	
10	
11	
6	
7	
10	
4	
16	
13	
15	
11	
10	
12	
7	
7	
7	
11	
8	
15	
11	
10	
11	
14	
3	
10	
6	
15	
12	
12	
9	
14	
7	
9	
7	
24	
9	
5	
6	
8	
10	
15	
11	
4	
13	
10	
12	
6	
14	
9	
11	
8	
12	
13	
6	
9	
13	
8	
7	
8	
6	
9	
6	
4	
13	
11	
10	
7	
12	
8	
6	
13	
9	
11	
14	
7	
14	
5	
9	
12	
6	
8	
5	
17	
12	
9	
10	
12	
10	
14	
8	
3	
11	
11	
10	
4	
7	
11	
10	
8	
5	
7	
6	
10	
7	
7	
8	
8	
10	
8	
6	
12	
12	
11	
9	
7	
15	
10	
8	
8	
5	
4	
13	
11	
7	
8	
8	
11	
8	
5	
5	
11	
10	
13	
7	
9	
6	
12	
5	
6	
13	
10	
7	
8	
15	
9	
10	
7	
6	
11	
5	
2	
8	
12	
11	
9	
9	
7	
10	
18	
5	
11	
9	
9	
8	
7	
5	
6	
5	
8	
6	
5	
3	
7	
10	
8	
8	
4	
8	
7	
7	
9	
6	
5	
4	
10	
4	
6	
11	
7	
7	
7	
10	
7	
4	
10	
9	
7	
9	
7	
6	
10	
6	
9	
6	
11	
4	
8	
10	
7	
9	
3	
6	
7	
9	
5	
9	
5	
12	
9	
8	
6	
6	
6	
7	
4	
5	
8	
7	
10	
7	
9	
8	
7	
4	
9	
6	
9	
3	
5	
2	
6	
8	
6	
9	
11	
10	
6	
4	
8	
11	
6	
7	
8	
4	
4	
7	
9	
6	
7	
9	
4	
10	
5	
5	
7	
4	
8	
4	
9	
2	
10	
8	
8	
8	
4	
7	
8	
6	
8	
9	
7	
6	
6	
11	
3	
5	
12	
9	
5	
9	
7	
5	
6	
5	
8	
3	
5	
5	
14	
6	
3	
9	
10	
7	
8	
6	
10	
5	
7	
7	
8	
8	
4	
8	
2	
5	
5	
7	
4	
10	
8	
1	
4	
1	
10	
9	
3	
9	
3	
4	
5	
5	
4	
3	
4	
5	
8	
3	
7	
10	
6	
8	
7	
8	
11	
6	
9	
4	
9	
4	
7	
2	
9	
4	
10	
5	
8	
9	
6	
4	
12	
2	
7	
5	
7	
6	
5	
7	
5	
11	
4	
5	
6	
4	
2	
12	
2	
3	
2	
8	
11	
4	
6	
3	
7	
5	
5	
7	
6	
2	
8	
6	
9	
8	
3	
4	
9	
8	
8	
5	
7	
6	
8	
4	
9	
11	
9	
4	
7	
4	
7	
6	
5	
8	
4	
1	
4	
6	
0	
7	
3	
5	
2	
5	
7	
4	
5	
5	
6	
3	
7	
7	
4	
3	
4	
1	
4	
6	
5	
5	
5	
3	
5	
6	
7	
6	
2	
6	
8	
7	
9	
6	
4	
3	
5	
2	
4	
8	
5	
6	
6	
8	
4	
3	
6	
7	
8	
5	
4	
2	
3	
6	
11	
4	
2	
2	
7	
9	
8	
5	
5	
7	
7	
3	
5	
6	
7	
4	
5	
4	
10	
4	
2	
4	
4	
5	
3	
5	
5	
6	
4	
7	
6	
3	
3	
6	
6	
4	
4	
5	
7	
3	
3	
8	
7	
3	
6	
4	
4	
7	
5	
6	
7	
5	
3	
4	
6	
5	
4	
3	
8	
6	
3	
4	
5	
3	
8	
5	
4	
5	
4	
7	
9	
2	
2	
3	
4	
6	
3	
2	
3	
5	
8	
7	
6	
2	
5	
7	
2	
8	
2	
4	
4	
8	
4	
5	
5	
4	
4	
2	
4	
6	
7	
6	
8	
2	
8	
6	
5	
5	
6	
3	
3	
1	
5	
5	
6	
3	
4	
2	
7	
3	
3	
10	
4	
7	
1	
4	
3	
8	
5	
6	
5	
3	
6	
7	
7	
6	
3	
6	
6	
1	
4	
3	
7	
10	
4	
5	
2	
3	
3	
8	
4	
4	
3	
1	
5	
6	
6	
7	
3	
5	
4	
7	
2	
3	
7	
5	
5	
2	
2	
5	
1	
3	
10	
1	
5	
6	
6	
5	
5	
3	
4	
7	
1	
5	
5	
3	
3	
4	
7	
6	
3	
6	
3	
5	
8	
5	
5	
3	
7	
3	
7	
3	
5	
7	
5	
3	
4	
3	
4	
4	
3	
7	
4	
5	
9	
5	
1	
6	
6	
5	
11	
9	
3	
5	
4	
5	
4	
1	
4	
7	
4	
6	
7	
7	
3	
4	
4	
6	
6	
4	
3	
4	
5	
3	
1	
3	
4	
4	
7	
3	
6	
5	
6	
4	
3	
3	
5	
3	
3	
4	
2	
6	
5	
3	
3	
4	
4	
4	
7	
4	
2	
3	
3	
7	
4	
3	
4	
6	
6	
6	
3	
4	
3	
6	
4	
2	
4	
3	
7	
2	
2	
3	
7	
3	
7	
5	
5	
2	
7	
4	
4	
5	
5	
5	
7	
5	
5	
7	
1	
8	
2	
4	
2	
5	
3	
6	
6	
3	
2	
4	
3	
3	
3	
1	
2	
7	
4	
3	
4	
4	
4	
2	
8	
4	
3	
6	
4	
3	
1	
3	
4	
3	
3	
5	
2	
7	
1	
3	
8	
4	
5	
1	
3	
3	
7	
5	
2	
2	
2	
2	
3	
3	
3	
4	
2	
2	
4	
5	
5	
8	
3	
9	
5	
4	
1	
3	
5	
4	
2	
7	
6	
3	
6	
5	
3	
2	
2	
7	
4	
6	
5	
1	
7	
4	
7	
6	
2	
4	
3	
2	
4	
4	
2	
5	
6	
4	
2	
0	
4	
6	
2	
5	
2	
2	
6	
6	
5	
8	
5	
2	
4	
3	
10	
4	
12	
6	
2	
3	
6	
4	
3	
6	
5	
4	
2	
2	
2	
2	
2	
1	
4	
4	
2	
6	
7	
1	
6	
4	
3	
3	
3	
4	
7	
4	
5	
4	
3	
4	
9	
2	
6	
5	
3	
4	
5	
7	
5	
5	
6	
3	
3	
4	
0	
5	
6	
5	
4	
3	
5	
3	
6	
5	
3	
5	
3	
4	
4	
3	
6	
3	
5	
3	
7	
4	
6	
2	
2	
3	
3	
4	
4	
0	
3	
0	
5	
3	
8	
8	
5	
3	
4	
6	
6	
3	
4	
6	
4	
5	
10	
2	
1	
4	
4	
6	
8	
1	
5	
6	
1	
1	
5	
3	
1	
2	
5	
6	
8	
4	
5	
2	
2	
3	
4	
6	
5	
1	
4	
3	
2	
4	
3	
3	
2	
5	
5	
1	
7	
3	
5	
4	
0	
5	
8	
1	
3	
6	
9	
5	
2	
5	
6	
7	
6	
5	
5	
5	
8	
5	
2	
2	
2	
3	
4	
6	
5	
1	
7	
4	
6	
3	
4	
0	
2	
6	
3	
5	
2	
0	
1	
2	
1	
1	
3	
8	
2	
2	
2	
6	
1	
0	
3	
7	
4	
4	
3	
1	
2	
2	
2	
5	
4	
2	
5	
2	
0	
10	
2	
7	
3	
5	
3	
4	
3	
6	
6	
2	
5	
6	
2	
1	
3	
3	
3	
2	
4	
1	
4	
3	
5	
4	
2	
5	
1	
7	
1	
3	
9	
2	
4	
4	
3	
4	
4	
2	
2	
1	
7	
2	
5	
4	
4	
5	
3	
4	
4	
4	
4	
1	
6	
1	
2	
1	
6	
6	
3	
3	
5	
3	
4	
6	
2	
2	
2	
1	
4	
3	
4	
5	
4	
3	
2	
6	
2	
8	
4	
4	
3	
5	
2	
1	
9	
2	
5	
5	
3	
5	
3	
2	
7	
5	
3	
4	
3	
5	
6	
2	
1	
6	
4	
5	
2	
3	
6	
5	
4	
3	
5	
3	
4	
3	
0	
5	
6	
5	
4	
2	
3	
5	
4	
4	
3	
6	
3	
5	
5	
4	
3	
6	
3	
5	
7	
9	
1	
4	
4	
3	
4	
4	
6	
2	
3	
4	
3	
6	
2	
3	
6	
3	
5	
3	
2	
4	
3	
7	
4	
0	
3	
3	
1	
2	
4	
2	
4	
4	
4	
2	
5	
1	
2	
1	
5	
5	
6	
2	
6	
6	
1	
2	
5	
5	
1	
5	
0	
2	
6	
3	
5	
1	
3	
5	
1	
3	
3	
1	
6	
5	
4	
2	
1	
1	
1	
3	
4	
7	
1	
9	
4	
6	
4	
3	
4	
3	
3	
2	
3	
5	
3	
2	
7	
9	
6	
3	
7	
3	
5	
5	
5	
5	
1	
5	
4	
3	
0	
6	
1	
1	
2	
2	
2	
2	
2	
4	
1	
3	
2	
3	
3	
6	
1	
2	
2	
4	
1	
3	
3	
2	
4	
1	
3	
5	
3	
4	
2	
1	
7	
4	
3	
2	
5	
2	
4	
4	
3	
4	
2	
5	
5	
1	
3	
3	
5	
3	
3	
1	
3	
4	
4	
6	
4	
4	
2	
5	
3	
4	
2	
5	
2	
3	
3	
3	
3	
5	
3	
2	
5	
5	
2	
4	
6	
4	
3	
3	
3	
4	
3	
2	
3	
4	
3	
3	
6	
1	
3	
8	
0	
2	
4	
2	
1	
3	
5	
5	
1	
1	
5	
6	
4	
3	
4	
6	
2	
2	
4	
2	
4	
3	
9	
5	
2	
3	
5	
3	
4	
3	
2	
3	
5	
2	
6	
3	
5	
3	
4	
6	
4	
4	
4	
2	
4	
3	
5	
1	
1	
5	
4	
1	
6	
2	
1	
1	
3	
4	
2	
1	
5	
2	
4	
3	
3	
2	
1	
1	
4	
4	
3	
3	
2	
2	
3	
5	
5	
3	
3	
5	
4	
5	
1	
5	
5	
3	
2	
5	
0	
2	
3	
1	
2	
4	
3	
4	
3	
2	
3	
1	
5	
3	
5	
5	
0	
2	
3	
9	
5	
2	
3	
4	
8	
0	
5	
2	
3	
0	
3	
4	
0	
1	
5	
4	
4	
2	
2	
3	
0	
6	
1	
2	
4	
6	
1	
2	
1	
2	
2	
4	
4	
5	
5	
1	
4	
5	
1	
1	
2	
4	
3	
2	
5	
3	
2	
4	
6	
3	
4	
4	
2	
6	
3	
4	
5	
3	
2	
3	
6	
5	
5	
1	
6	
4	
4	
1	
2	
5	
6	
2	
6	
4	
5	
3	
2	
7	
7	
2	
2	
3	
3	
4	
1	
4	
1	
1	
4	
5	
1	
4	
1	
2	
6	
2	
3	
4	
3	
2	
0	
6	
4	
3	
4	
4	
4	
2	
3	
4	
7	
1	
4	
3	
2	
4	
8	
4	
4	
2	
5	
0	
6	
6	
5	
5	
4	
5	
4	
4	
2	
6	
4	
7	
2	
5	
4	
3	
1	
0	
2	
8	
3	
7	
1	
4	
4	
3	
3	
3	
2	
4	
2	
4	
3	
3	
3	
2	
2	
5	
5	
4	
3	
4	
2	
3	
7	
1	
2	
1	
2	
2	
7	
3	
5	
4	
5	
5	
1	
1	
3	
4	
3	
6	
2	
1	
3	
3	
1	
3	
1	
1	
3	
4	
5	
3	
2	
3	
0	
0	
3	
5	
2	
3	
5	
4	
2	
5	
3	
3	
3	
2	
6	
5	
4	
1	
4	
2	
2	
1	
2	
6	
4	
1	
4	
3	
4	
5	
5	
2	
1	
7	
6	
2	
3	
0	
5	
4	
3	
5	
5	
5	
4	
3	
2	
5	
2	
5	
2	
4	
2	
5	
6	
3	
2	
3	
3	
3	
5	
6	
3	
4	
1	
5	
3	
4	
6	
0	
0	
3	
3	
5	
6	
2	
6	
1	
3	
2	
5	
4	
1	
4	
2	
3	
5	
0	
4	
8	
2	
4	
5	
2	
4	
3	
3	
7	
4	
3	
4	
2	
1	
5	
0	
4	
3	
3	
3	
5	
4	
5	
2	
2	
4	
2	
3	
2	
4	
2	
3	
4	
2	
3	
4	
3	
2	
5	
2	
2	
3	
8	
4	
4	
4	
3	
6	
5	
5	
4	
0	
0	
0	
4	
5	
2	
0	
1	
5	
11	
5	
2	
1	
3	
5	
0	
7	
6	
2	
5	
4	
3	
2	
2	
4	
2	
6	
1	
1	
3	
1	
4	
1	
2	
2	
2	
2	
2	
1	
3	
2	
3	
5	
4	
1	
0	
2	
2	
2	
5	
3	
2	
1	
3	
1	
5	
3	
2	
1	
3	
7	
2	
5	
7	
1	
2	
5	
7	
3	
2	
6	
4	
3	
4	
3	
0	
5	
2	
0	
5	
6	
4	
5	
3	
2	
2	
4	
3	
2	
7	
4	
5	
1	
8	
4	
0	
3	
4	
3	
3	
2	
1	
6	
2	
3	
2	
2	
2	
3	
5	
3	
1	
1	
3	
4	
4	
5	
3	
5	
2	
2	
2	
2	
2	
6	
1	
3	
2	
2	
3	
4	
1	
3	
3	
6	
8	
3	
3	
1	
2	
2	
3	
3	
2	
1	
6	
6	
4	
4	
4	
2	
5	
5	
3	
1	
3	
1	
1	
3	
4	
3	
7	
5	
4	
2	
4	
6	
2	
2	
2	
4	
1	
2	
4	
1	
7	
1	
5	
3	
3	
4	
2	
4	
5	
1	
1	
6	
2	
7	
3	
1	
5	
3	
5	
6	
4	
4	
3	
3	
3	
2	
1	
3	
0	
2	
6	
4	
4	
1	
3	
4	
4	
3	
2	
4	
5	
0	
3	
3	
4	
1	
3	
0	
5	
4	
2	
4	
4	
2	
4	
1	
4	
1	
3	
3	
7	
3	
8	
2	
8	
3	
3	
2	
5	
5	
2	
4	
5	
3	
2	
4	
3	
4	
4	
5	
1	
3	
5	
7	
4	
3	
4	
1	
2	
1	
3	
5	
5	
2	
2	
4	
2	
1	
3	
4	
3	
1	
5	
2	
4	
4	
3	
2	
5	
4	
5	
2	
4	
3	
2	
2	
2	
6	
2	
4	
1	
2	
6	
2	
4	
1	
5	
2	
0	
3	
1	
2	
3	
5	
2	
4	
2	
4	
1	
5	
3	
3	
3	
2	
3	
6	
2	
2	
0	
4	
3	
1	
2	
6	
3	
3	
2	
5	
2	
3	
4	
5	
3	
0	
6	
4	
0	
3	
2	
4	
1	
5	
4	
3	
1	
2	
2	
2	
3	
3	
1	
4	
4	
1	
4	
4	
0	
3	
5	
3	
3	
2	
7	
3	
2	
1	
3	
2	
1	
1	
3	
3	
4	
4	
2	
2	
3	
4	
7	
4	
3	
0	
3	
4	
4	
3	
4	
3	
2	
4	
9	
2	
5	
0	
3	
0	
3	
3	
1	
4	
2	
2	
6	
3	
3	
5	
3	
0	
5	
6	
3	
5	
2	
0	
1	
2	
1	
1	
2	
2	
3	
1	
1	
1	
5	
3	
1	
9	
4	
2	
4	
5	
3	
6	
2	
4	
4	
1	
3	
2	
9	
1	
4	
2	
0	
5	
3	
4	
4	
3	
4	
3	
1	
4	
4	
3	
4	
4	
4	
2	
1	
1	
2	
2	
0	
1	
1	
2	
0	
6	
2	
3	
6	
2	
3	
3	
3	
3	
4	
1	
2	
4	
1	
3	
0	
3	
5	
1	
5	
2	
0	
3	
1	
4	
5	
2	
3	
5	
2	
4	
3	
2	
2	
5	
2	
3	
3	
2	
2	
3	
2	
3	
5	
2	
3	
5	
2	
5	
5	
1	
6	
1	
4	
1	
2	
4	
4	
2	
4	
3	
2	
3	
5	
4	
1	
1	
3	
3	
0	
4	
4	
1	
1	
3	
2	
5	
0	
1	
1	
1	
3	
4	
4	
6	
9	
2	
2	
2	
3	
4	
3	
2	
4	
3	
1	
3	
2	
3	
1	
4	
6	
1	
4	
3	
5	
3	
3	
1	
6	
7	
4	
4	
2	
8	
4	
5	
4	
3	
2	
3	
4	
0	
2	
2	
2	
0	
3	
8	
2	
5	
4	
6	
5	
2	
4	
7	
4	
6	
4	
2	
4	
1	
5	
1	
7	
0	
0	
5	
3	
4	
4	
2	
3	
4	
3	
2	
4	
6	
5	
3	
3	
1	
5	
2	
5	
2	
3	
2	
2	
4	
1	
7	
0	
3	
4	
3	
1	
4	
3	
3	
4	
4	
6	
4	
5	
4	
1	
2	
5	
3	
2	
4	
1	
1	
1	
5	
5	
2	
2	
6	
3	
1	
1	
0	
3	
9	
3	
4	
2	
1	
3	
5	
2	
4	
7	
4	
1	
1	
0	
5	
1	
4	
3	
3	
3	
2	
3	
4	
6	
4	
2	
2	
3	
4	
1	
3	
3	
1	
4	
6	
3	
3	
3	
3	
4	
1	
3	
1	
2	
3	
5	
3	
2	
2	
4	
3	
3	
2	
1	
7	
2	
3	
6	
3	
2	
3	
6	
1	
3	
8	
1	
2	
3	
2	
5	
3	
2	
4	
3	
5	
2	
5	
4	
2	
3	
2	
2	
3	
3	
1	
5	
3	
2	
2	
1	
5	
3	
3	
4	
1	
4	
2	
4	
3	
6	
8	
6	
2	
5	
2	
1	
5	
3	
3	
2	
2	
3	
5	
1	
1	
4	
1	
3	
1	
3	
4	
2	
4	
2	
5	
3	
3	
2	
2	
1	
5	
2	
1	
6	
4	
0	
3	
0	
2	
4	
3	
4	
3	
2	
3	
2	
2	
3	
0	
2	
3	
0	
2	
3	
2	
5	
3	
1	
4	
2	
7	
4	
1	
2	
1	
1	
2	
3	
2	
3	
1	
3	
4	
0	
5	
3	
2	
0	
3	
5	
1	
2	
4	
5	
4	
3	
2	
3	
3	
2	
3	
3	
4	
3	
0	
3	
1	
5	
3	
1	
4	
5	
5	
7	
2	
0	
5	
3	
2	
0	
2	
0	
5	
2	
2	
2	
3	
4	
1	
1	
2	
1	
3	
2	
1	
4	
1	
3	
4	
1	
2	
4	
2	
1	
0	
3	
2	
1	
1	
2	
3	
3	
3	
2	
4	
2	
4	
4	
3	
5	
3	
3	
0	
0	
0	
0	
0	
0	
0	
0	
0	
0	
0	
0	
0	
0	
0	
0	
0	
0	
0	
0	
0	
0	
0	
0	
0	
0	
0	
0	
0	
0	
0	
0	
0	
0	
