#PicoHarp 300  Histogram Data			02/27/2023 03:13:13 PM
#channels per curve
7813
#display curve no.
0	
#memory block no.
0	
#ns/channel
0.1280	
#counts
2	
2	
2	
2	
1	
0	
0	
1	
3	
0	
2	
2	
1	
2	
3	
2	
5	
0	
0	
2	
5	
2	
2	
1	
2	
3	
3	
0	
2	
2	
2	
3	
0	
3	
0	
1	
4	
2	
3	
2	
3	
1	
3	
2	
0	
2	
0	
2	
2	
0	
1	
1	
2	
2	
0	
3	
2	
1	
3	
3	
2	
1	
1	
2	
2	
0	
2	
0	
4	
1	
2	
3	
3	
3	
2	
1	
1	
0	
2	
2	
1	
1	
4	
1	
3	
3	
1	
0	
1	
2	
0	
1	
1	
1	
0	
3	
0	
0	
1	
3	
5	
2	
0	
2	
1	
2	
2	
5	
1	
2	
2	
4	
1	
2	
2	
2	
2	
3	
2	
2	
2	
5	
1	
1	
1	
2	
1	
2	
2	
4	
2	
0	
3	
2	
2	
1	
1	
1	
0	
2	
0	
3	
4	
3	
4	
2	
1	
1	
3	
3	
1	
4	
2	
0	
1	
2	
1	
6	
1	
4	
1	
2	
2	
0	
1	
1	
2	
3	
4	
3	
2	
0	
1	
2	
3	
3	
0	
1	
1	
1	
2	
2	
2	
1	
0	
1	
2	
3	
4	
1	
4	
2	
0	
0	
2	
2	
1	
0	
2	
1	
2	
3	
2	
1	
0	
1	
1	
3	
6	
1	
1	
5	
4	
1	
1	
1	
1	
4	
2	
2	
0	
1	
3	
0	
0	
3	
1	
0	
0	
1	
1	
3	
3	
6	
0	
1	
4	
0	
4	
0	
4	
5	
12	
19	
33	
52	
86	
135	
151	
178	
207	
216	
236	
211	
235	
235	
253	
238	
204	
229	
248	
239	
225	
232	
220	
210	
215	
238	
180	
199	
187	
202	
192	
197	
194	
209	
174	
188	
194	
198	
180	
182	
199	
177	
197	
164	
176	
208	
176	
190	
168	
183	
184	
194	
165	
164	
185	
175	
164	
180	
181	
177	
194	
181	
169	
208	
156	
157	
179	
158	
174	
166	
171	
159	
168	
150	
155	
146	
178	
152	
147	
149	
133	
149	
165	
138	
146	
136	
153	
147	
135	
163	
145	
134	
149	
132	
135	
154	
139	
130	
126	
145	
133	
139	
142	
137	
146	
131	
139	
142	
123	
121	
129	
130	
145	
134	
131	
133	
156	
149	
137	
143	
148	
154	
142	
140	
113	
141	
137	
133	
124	
125	
157	
121	
131	
143	
143	
117	
114	
112	
134	
140	
122	
152	
125	
148	
109	
103	
129	
115	
115	
126	
110	
150	
122	
108	
124	
119	
117	
113	
107	
127	
115	
128	
117	
102	
119	
143	
111	
120	
98	
106	
140	
112	
114	
108	
128	
132	
115	
111	
134	
119	
113	
120	
108	
97	
119	
91	
109	
130	
108	
105	
110	
101	
124	
118	
95	
131	
100	
90	
97	
99	
120	
107	
123	
103	
123	
89	
103	
104	
123	
109	
86	
99	
109	
121	
113	
103	
102	
114	
93	
99	
81	
116	
100	
86	
85	
91	
91	
103	
104	
90	
95	
114	
101	
96	
82	
88	
115	
95	
79	
89	
97	
105	
91	
100	
96	
94	
106	
80	
85	
88	
85	
97	
85	
88	
94	
81	
90	
108	
103	
92	
82	
83	
78	
91	
76	
93	
92	
91	
93	
88	
100	
87	
88	
84	
65	
108	
91	
75	
83	
90	
77	
97	
80	
95	
82	
83	
73	
93	
66	
95	
88	
84	
89	
69	
79	
84	
70	
87	
84	
66	
92	
91	
92	
101	
83	
81	
73	
88	
78	
65	
75	
79	
78	
80	
87	
65	
81	
71	
75	
69	
81	
86	
87	
89	
77	
73	
90	
74	
82	
83	
66	
64	
49	
71	
96	
76	
78	
68	
89	
76	
78	
81	
80	
88	
74	
71	
67	
70	
85	
87	
74	
73	
81	
69	
57	
86	
68	
90	
63	
79	
53	
74	
78	
66	
62	
78	
82	
77	
67	
62	
77	
83	
73	
83	
64	
69	
77	
68	
63	
81	
71	
84	
72	
79	
57	
76	
71	
66	
71	
62	
73	
61	
70	
69	
56	
67	
65	
70	
69	
78	
67	
65	
52	
52	
60	
61	
50	
60	
66	
69	
67	
64	
76	
79	
54	
49	
71	
53	
68	
60	
63	
65	
63	
48	
62	
67	
71	
54	
63	
52	
59	
52	
65	
76	
62	
56	
61	
57	
52	
59	
65	
66	
63	
61	
61	
58	
60	
60	
50	
61	
62	
50	
59	
52	
61	
60	
62	
48	
60	
62	
48	
64	
71	
59	
49	
70	
63	
69	
67	
75	
55	
59	
70	
57	
69	
53	
65	
57	
44	
49	
64	
49	
47	
51	
53	
52	
53	
43	
65	
51	
51	
67	
64	
58	
43	
44	
56	
48	
59	
56	
59	
54	
55	
57	
50	
68	
53	
54	
48	
49	
60	
47	
49	
62	
60	
50	
55	
63	
55	
54	
59	
56	
57	
47	
57	
62	
52	
46	
39	
48	
48	
42	
49	
55	
53	
52	
54	
50	
56	
35	
46	
48	
44	
51	
44	
44	
46	
59	
65	
54	
42	
40	
45	
38	
55	
34	
49	
63	
45	
43	
47	
54	
54	
46	
48	
63	
40	
38	
64	
44	
41	
49	
57	
49	
48	
54	
39	
42	
67	
44	
43	
50	
36	
44	
54	
45	
46	
49	
41	
42	
42	
40	
51	
41	
58	
37	
46	
34	
52	
47	
63	
55	
38	
49	
51	
38	
41	
45	
39	
43	
56	
41	
44	
41	
49	
49	
41	
36	
38	
36	
44	
40	
39	
33	
37	
43	
33	
37	
50	
32	
49	
56	
45	
47	
42	
43	
44	
50	
46	
42	
31	
47	
31	
46	
50	
41	
33	
27	
40	
52	
44	
38	
38	
49	
43	
35	
38	
42	
36	
45	
40	
47	
41	
45	
47	
50	
39	
47	
34	
27	
53	
44	
42	
55	
46	
37	
38	
47	
42	
32	
43	
31	
35	
41	
28	
42	
44	
49	
41	
39	
35	
43	
33	
38	
36	
38	
38	
30	
31	
38	
33	
47	
45	
45	
50	
37	
38	
37	
38	
39	
44	
39	
46	
29	
43	
39	
45	
36	
37	
33	
33	
39	
26	
31	
31	
36	
36	
39	
39	
31	
44	
35	
35	
40	
31	
40	
37	
26	
28	
43	
23	
27	
32	
33	
45	
32	
35	
30	
36	
33	
26	
32	
35	
43	
36	
29	
30	
34	
29	
38	
43	
39	
51	
37	
35	
31	
39	
40	
46	
30	
38	
30	
34	
36	
29	
38	
34	
43	
30	
29	
31	
31	
36	
27	
34	
38	
28	
31	
39	
22	
28	
29	
34	
37	
30	
37	
33	
31	
33	
29	
27	
29	
31	
43	
34	
32	
29	
24	
34	
34	
33	
35	
34	
34	
30	
27	
33	
28	
34	
34	
33	
30	
36	
34	
29	
33	
29	
25	
31	
36	
27	
37	
43	
29	
24	
25	
30	
32	
32	
28	
32	
19	
30	
22	
36	
34	
37	
29	
28	
34	
24	
33	
33	
43	
31	
30	
36	
22	
35	
26	
30	
25	
34	
28	
31	
27	
27	
27	
27	
38	
28	
28	
36	
39	
36	
33	
35	
30	
27	
24	
34	
33	
34	
28	
27	
27	
24	
23	
30	
26	
35	
22	
31	
34	
28	
29	
27	
22	
29	
24	
22	
22	
25	
22	
23	
28	
21	
26	
20	
28	
31	
28	
33	
22	
26	
44	
24	
18	
34	
35	
26	
27	
23	
40	
26	
36	
36	
29	
25	
26	
41	
22	
25	
33	
23	
31	
29	
31	
30	
29	
36	
33	
30	
22	
27	
28	
32	
29	
27	
30	
26	
29	
23	
29	
22	
23	
23	
33	
28	
30	
31	
29	
23	
26	
22	
21	
30	
32	
30	
25	
30	
20	
20	
34	
26	
21	
19	
25	
33	
29	
25	
19	
35	
25	
22	
31	
26	
24	
34	
29	
20	
20	
34	
31	
24	
26	
18	
30	
18	
26	
23	
34	
24	
27	
23	
20	
24	
28	
25	
25	
21	
24	
26	
19	
29	
22	
26	
25	
19	
26	
34	
25	
26	
34	
23	
28	
23	
32	
26	
22	
30	
24	
27	
33	
20	
20	
25	
23	
24	
18	
22	
30	
22	
17	
27	
23	
26	
28	
19	
17	
17	
29	
28	
23	
25	
27	
19	
32	
28	
16	
19	
16	
21	
24	
29	
22	
19	
20	
23	
24	
26	
26	
28	
30	
23	
27	
15	
24	
18	
17	
24	
19	
20	
20	
16	
21	
16	
31	
11	
28	
22	
14	
29	
23	
13	
23	
24	
22	
26	
18	
27	
25	
23	
25	
20	
28	
27	
24	
22	
22	
15	
21	
20	
17	
25	
17	
26	
17	
18	
23	
13	
20	
24	
15	
14	
14	
19	
24	
20	
23	
21	
16	
19	
17	
22	
19	
23	
16	
15	
26	
14	
14	
28	
18	
12	
26	
21	
21	
22	
20	
21	
20	
17	
24	
27	
20	
14	
23	
23	
21	
14	
23	
19	
19	
40	
17	
19	
23	
14	
21	
23	
11	
28	
20	
25	
33	
18	
16	
14	
22	
20	
14	
21	
19	
17	
15	
21	
21	
19	
29	
14	
21	
19	
17	
22	
29	
13	
19	
13	
17	
29	
22	
16	
14	
25	
20	
20	
16	
16	
17	
24	
11	
17	
17	
17	
24	
24	
13	
23	
18	
16	
19	
15	
16	
10	
19	
20	
13	
14	
15	
16	
17	
22	
21	
18	
18	
25	
14	
22	
16	
16	
23	
13	
24	
21	
18	
23	
16	
22	
12	
21	
18	
25	
17	
25	
22	
27	
13	
16	
13	
12	
20	
21	
17	
19	
15	
18	
19	
20	
14	
17	
19	
18	
16	
22	
13	
19	
9	
21	
21	
23	
11	
17	
25	
12	
21	
13	
10	
21	
17	
12	
26	
21	
17	
14	
12	
19	
16	
21	
18	
19	
15	
16	
21	
23	
16	
19	
16	
11	
16	
19	
23	
13	
18	
26	
18	
12	
9	
21	
18	
18	
18	
18	
8	
23	
20	
14	
19	
15	
20	
19	
23	
21	
13	
15	
11	
9	
16	
14	
20	
13	
16	
19	
16	
19	
21	
18	
24	
19	
12	
18	
14	
19	
13	
13	
18	
17	
11	
10	
19	
13	
19	
22	
14	
8	
12	
13	
21	
25	
17	
12	
17	
21	
15	
15	
20	
16	
16	
15	
12	
11	
17	
14	
18	
21	
27	
15	
19	
18	
8	
21	
7	
17	
17	
21	
13	
21	
17	
14	
11	
11	
15	
18	
10	
13	
16	
15	
9	
16	
14	
12	
16	
12	
14	
15	
12	
17	
17	
10	
16	
15	
21	
13	
15	
13	
14	
10	
16	
16	
11	
18	
21	
14	
17	
22	
11	
15	
18	
14	
11	
12	
14	
15	
17	
14	
19	
24	
16	
27	
11	
21	
15	
15	
11	
11	
7	
17	
14	
9	
15	
17	
17	
12	
17	
10	
16	
14	
20	
9	
17	
12	
11	
15	
16	
19	
14	
15	
12	
8	
11	
18	
16	
13	
10	
11	
12	
12	
14	
13	
10	
16	
16	
16	
12	
15	
14	
11	
20	
7	
10	
16	
11	
10	
12	
17	
14	
7	
9	
15	
21	
10	
8	
9	
17	
13	
13	
14	
12	
13	
10	
18	
7	
8	
14	
12	
14	
14	
7	
14	
15	
11	
22	
15	
10	
12	
20	
13	
18	
8	
10	
15	
14	
18	
15	
7	
14	
8	
11	
14	
14	
12	
8	
12	
18	
11	
16	
22	
9	
16	
14	
15	
15	
11	
16	
12	
9	
15	
14	
13	
12	
15	
10	
15	
9	
14	
16	
17	
9	
10	
9	
14	
13	
12	
13	
12	
18	
14	
14	
16	
11	
13	
16	
11	
14	
10	
9	
5	
17	
6	
12	
16	
5	
14	
15	
21	
14	
14	
11	
12	
9	
12	
16	
11	
11	
16	
9	
9	
9	
9	
11	
9	
14	
8	
20	
14	
10	
14	
14	
12	
19	
13	
20	
20	
11	
12	
14	
8	
17	
14	
9	
15	
14	
22	
15	
10	
13	
17	
10	
8	
12	
8	
17	
10	
19	
16	
10	
17	
8	
11	
14	
9	
11	
9	
18	
10	
10	
11	
14	
15	
13	
18	
16	
7	
17	
13	
9	
11	
17	
15	
10	
11	
6	
8	
10	
15	
14	
6	
9	
14	
9	
9	
12	
15	
14	
18	
12	
8	
3	
12	
13	
15	
8	
14	
18	
10	
11	
10	
9	
18	
8	
15	
12	
13	
6	
8	
7	
12	
19	
9	
11	
15	
15	
18	
12	
5	
10	
7	
11	
8	
11	
17	
12	
12	
10	
11	
13	
8	
16	
7	
11	
8	
16	
16	
12	
12	
13	
12	
11	
10	
18	
11	
12	
14	
12	
9	
13	
7	
8	
12	
10	
8	
11	
8	
9	
10	
9	
11	
9	
17	
8	
10	
21	
11	
13	
10	
12	
13	
12	
11	
8	
7	
12	
15	
15	
9	
11	
11	
14	
16	
13	
12	
10	
14	
16	
9	
6	
9	
12	
4	
15	
9	
13	
11	
12	
15	
8	
11	
8	
7	
11	
10	
6	
10	
9	
12	
14	
9	
7	
10	
10	
10	
17	
11	
11	
6	
12	
14	
6	
10	
7	
13	
10	
15	
12	
14	
14	
13	
13	
10	
11	
5	
11	
13	
13	
6	
13	
6	
7	
9	
14	
13	
5	
10	
17	
7	
7	
8	
9	
14	
10	
10	
9	
11	
12	
7	
6	
10	
12	
10	
13	
9	
12	
7	
14	
18	
10	
8	
7	
10	
19	
13	
11	
10	
12	
9	
12	
10	
10	
13	
11	
8	
5	
7	
13	
7	
9	
9	
8	
12	
13	
10	
8	
13	
8	
12	
8	
11	
7	
7	
12	
16	
12	
17	
11	
16	
3	
8	
8	
16	
11	
8	
6	
13	
2	
9	
11	
9	
10	
5	
11	
11	
19	
13	
8	
13	
11	
7	
13	
4	
13	
14	
10	
9	
16	
9	
10	
3	
5	
12	
15	
15	
5	
10	
7	
9	
11	
4	
7	
10	
11	
7	
12	
9	
11	
10	
5	
9	
9	
11	
14	
9	
17	
5	
10	
11	
16	
6	
6	
4	
7	
8	
7	
12	
10	
5	
9	
12	
13	
5	
13	
5	
12	
6	
7	
8	
12	
8	
7	
12	
9	
9	
8	
7	
8	
5	
10	
9	
8	
7	
5	
10	
11	
6	
7	
14	
5	
7	
4	
6	
11	
11	
8	
9	
8	
5	
8	
12	
19	
12	
13	
8	
8	
8	
6	
10	
3	
7	
8	
8	
10	
9	
10	
7	
10	
16	
7	
3	
7	
7	
15	
9	
15	
6	
10	
10	
9	
6	
7	
12	
7	
6	
12	
13	
7	
8	
13	
9	
7	
11	
8	
5	
13	
10	
10	
12	
6	
7	
2	
5	
9	
11	
10	
7	
6	
8	
9	
6	
10	
9	
4	
4	
11	
10	
7	
6	
10	
10	
7	
13	
9	
9	
9	
9	
8	
10	
10	
12	
10	
11	
6	
4	
11	
10	
8	
14	
9	
7	
7	
4	
7	
8	
5	
11	
11	
9	
6	
10	
7	
8	
8	
14	
11	
7	
8	
12	
4	
10	
3	
6	
5	
14	
4	
9	
8	
10	
5	
9	
12	
11	
10	
7	
8	
10	
9	
7	
8	
7	
6	
9	
8	
12	
8	
15	
9	
9	
14	
5	
4	
9	
7	
6	
14	
6	
11	
10	
6	
9	
9	
5	
8	
8	
6	
3	
10	
7	
8	
4	
8	
7	
7	
10	
11	
5	
4	
11	
9	
11	
7	
5	
7	
9	
9	
9	
6	
8	
6	
5	
7	
5	
4	
5	
8	
8	
9	
11	
6	
5	
10	
8	
5	
12	
8	
8	
14	
6	
7	
7	
10	
6	
7	
11	
7	
12	
3	
7	
8	
11	
9	
7	
11	
8	
10	
4	
10	
7	
5	
6	
6	
6	
10	
4	
7	
5	
5	
12	
14	
12	
4	
10	
9	
6	
8	
8	
9	
11	
8	
9	
6	
11	
8	
6	
14	
9	
8	
5	
11	
9	
6	
10	
9	
8	
6	
7	
6	
4	
10	
4	
8	
8	
10	
6	
5	
10	
5	
7	
7	
4	
11	
3	
8	
6	
10	
5	
9	
8	
8	
4	
5	
7	
5	
10	
6	
10	
5	
1	
9	
3	
5	
5	
4	
6	
5	
8	
7	
7	
10	
6	
10	
8	
7	
8	
7	
3	
6	
5	
3	
11	
6	
11	
4	
3	
8	
5	
5	
5	
9	
4	
5	
7	
12	
8	
4	
4	
7	
9	
8	
10	
6	
14	
9	
5	
7	
11	
8	
15	
5	
2	
4	
7	
6	
7	
8	
11	
7	
8	
8	
10	
5	
9	
6	
9	
5	
11	
8	
6	
11	
6	
5	
9	
7	
6	
11	
10	
8	
7	
6	
5	
5	
10	
10	
6	
6	
5	
7	
11	
6	
9	
9	
8	
5	
6	
3	
10	
6	
7	
8	
7	
5	
8	
7	
9	
6	
7	
11	
12	
9	
7	
6	
4	
7	
7	
6	
9	
8	
4	
4	
5	
10	
10	
5	
7	
4	
9	
10	
4	
7	
5	
7	
7	
5	
7	
5	
3	
6	
6	
5	
8	
9	
7	
8	
3	
7	
8	
5	
1	
5	
8	
9	
5	
0	
5	
12	
8	
5	
3	
3	
8	
6	
8	
5	
3	
7	
3	
8	
5	
9	
7	
7	
11	
6	
4	
6	
6	
6	
8	
10	
6	
10	
3	
8	
3	
5	
8	
9	
9	
3	
9	
5	
5	
10	
5	
8	
8	
6	
6	
8	
7	
4	
8	
4	
5	
2	
6	
9	
9	
8	
6	
8	
6	
8	
6	
7	
9	
3	
6	
5	
5	
4	
6	
3	
9	
7	
7	
11	
5	
10	
12	
2	
8	
3	
10	
5	
12	
6	
4	
5	
6	
10	
6	
4	
9	
5	
5	
4	
5	
8	
3	
3	
2	
6	
2	
7	
8	
3	
4	
7	
8	
9	
6	
8	
3	
7	
8	
10	
8	
1	
5	
8	
4	
2	
8	
10	
4	
6	
6	
6	
7	
8	
12	
6	
10	
6	
5	
3	
3	
7	
4	
4	
9	
3	
10	
7	
6	
3	
8	
8	
2	
8	
5	
9	
5	
6	
8	
6	
7	
6	
7	
4	
5	
3	
8	
8	
12	
5	
6	
5	
3	
3	
4	
5	
6	
6	
5	
4	
5	
4	
4	
5	
7	
6	
4	
7	
8	
5	
7	
5	
3	
9	
5	
5	
6	
7	
6	
6	
7	
6	
11	
3	
4	
5	
7	
7	
4	
11	
6	
6	
4	
5	
5	
5	
4	
5	
9	
6	
5	
4	
4	
13	
11	
2	
4	
5	
6	
3	
7	
8	
4	
7	
4	
8	
6	
6	
4	
4	
5	
2	
6	
3	
6	
7	
8	
10	
7	
5	
9	
7	
6	
5	
4	
6	
7	
6	
5	
3	
4	
8	
6	
2	
4	
6	
5	
7	
7	
5	
3	
3	
5	
6	
3	
8	
7	
7	
5	
5	
2	
6	
5	
4	
9	
3	
7	
8	
5	
6	
3	
7	
3	
9	
4	
4	
5	
4	
7	
7	
8	
3	
9	
5	
3	
4	
4	
3	
11	
6	
5	
4	
2	
5	
3	
7	
5	
6	
5	
5	
2	
4	
3	
3	
3	
11	
5	
5	
7	
7	
5	
4	
6	
3	
3	
3	
5	
7	
8	
6	
7	
5	
4	
8	
5	
4	
7	
4	
5	
6	
4	
5	
9	
8	
4	
6	
8	
2	
8	
7	
7	
4	
6	
7	
4	
8	
4	
3	
7	
5	
6	
10	
3	
7	
9	
4	
1	
3	
5	
4	
5	
6	
8	
3	
3	
7	
3	
4	
9	
6	
5	
7	
4	
2	
5	
6	
6	
5	
5	
5	
4	
5	
7	
11	
10	
7	
3	
4	
5	
8	
4	
1	
8	
4	
4	
7	
7	
3	
9	
2	
9	
9	
9	
4	
7	
4	
7	
9	
6	
5	
5	
4	
5	
6	
8	
5	
5	
4	
4	
5	
7	
4	
2	
9	
3	
4	
1	
1	
3	
4	
6	
3	
6	
6	
9	
3	
5	
4	
3	
2	
1	
5	
6	
3	
8	
4	
2	
1	
2	
5	
4	
5	
4	
3	
4	
6	
3	
3	
1	
4	
8	
6	
4	
5	
8	
1	
6	
9	
3	
3	
7	
4	
5	
7	
6	
6	
2	
2	
1	
3	
4	
4	
4	
4	
5	
3	
6	
5	
3	
4	
6	
4	
4	
4	
4	
0	
5	
8	
3	
9	
7	
6	
4	
4	
4	
6	
4	
5	
5	
4	
3	
3	
3	
1	
5	
0	
3	
5	
4	
5	
6	
3	
5	
9	
3	
7	
4	
7	
6	
4	
7	
9	
9	
5	
4	
5	
5	
5	
2	
6	
5	
6	
6	
4	
3	
1	
5	
4	
5	
4	
0	
2	
9	
4	
7	
6	
8	
7	
4	
0	
4	
4	
7	
7	
4	
1	
6	
4	
8	
0	
3	
5	
2	
6	
7	
3	
3	
4	
8	
8	
4	
3	
2	
6	
3	
4	
2	
7	
8	
3	
1	
5	
3	
5	
1	
5	
5	
6	
4	
5	
8	
5	
5	
3	
1	
4	
4	
4	
5	
7	
10	
2	
1	
6	
3	
4	
7	
5	
5	
6	
5	
3	
6	
3	
4	
6	
6	
4	
7	
3	
2	
4	
5	
2	
1	
5	
3	
5	
3	
8	
5	
3	
2	
4	
4	
4	
4	
8	
6	
3	
2	
3	
7	
8	
2	
5	
4	
0	
3	
7	
4	
6	
5	
6	
1	
4	
5	
6	
6	
9	
4	
3	
2	
5	
9	
2	
5	
4	
6	
3	
6	
3	
3	
8	
7	
2	
3	
4	
2	
4	
2	
6	
1	
2	
1	
1	
1	
5	
4	
4	
2	
1	
6	
3	
4	
5	
3	
3	
2	
4	
6	
4	
5	
5	
1	
2	
3	
4	
5	
5	
2	
5	
6	
6	
2	
6	
5	
8	
9	
3	
5	
4	
2	
4	
3	
4	
3	
4	
10	
5	
4	
0	
4	
6	
5	
7	
2	
6	
4	
2	
6	
2	
7	
4	
3	
2	
4	
3	
7	
4	
6	
7	
2	
1	
2	
9	
6	
3	
8	
3	
1	
5	
5	
4	
5	
3	
7	
4	
1	
7	
2	
9	
4	
3	
1	
1	
2	
5	
1	
6	
3	
6	
5	
3	
3	
1	
2	
7	
4	
4	
10	
5	
3	
2	
6	
8	
5	
3	
6	
3	
1	
2	
4	
7	
3	
1	
5	
6	
3	
1	
7	
4	
3	
4	
4	
3	
0	
5	
6	
3	
4	
3	
4	
4	
3	
5	
4	
2	
4	
3	
0	
7	
8	
3	
4	
5	
2	
5	
4	
5	
3	
4	
4	
5	
2	
6	
5	
3	
3	
5	
3	
3	
8	
5	
5	
5	
3	
3	
1	
2	
5	
7	
6	
5	
6	
6	
2	
0	
4	
5	
6	
6	
0	
3	
2	
4	
6	
2	
3	
2	
7	
5	
2	
4	
2	
4	
6	
0	
5	
3	
5	
6	
2	
2	
0	
8	
5	
2	
4	
8	
3	
4	
2	
1	
4	
2	
1	
4	
4	
3	
2	
2	
9	
6	
4	
4	
3	
7	
3	
2	
3	
4	
3	
2	
3	
5	
2	
1	
8	
3	
7	
1	
5	
1	
7	
4	
5	
4	
7	
5	
2	
3	
3	
7	
2	
4	
7	
5	
5	
4	
6	
2	
0	
3	
6	
4	
3	
3	
7	
3	
8	
3	
7	
6	
3	
2	
10	
7	
4	
7	
4	
6	
4	
5	
2	
2	
6	
3	
3	
6	
3	
3	
5	
7	
2	
2	
3	
4	
3	
3	
2	
6	
2	
3	
2	
1	
4	
5	
7	
9	
3	
0	
4	
2	
6	
4	
6	
2	
4	
4	
3	
3	
4	
3	
5	
3	
5	
4	
7	
2	
4	
3	
3	
1	
5	
5	
5	
2	
1	
7	
6	
7	
1	
3	
6	
4	
2	
5	
4	
4	
6	
1	
2	
4	
3	
4	
1	
3	
7	
2	
2	
3	
5	
8	
2	
3	
1	
6	
7	
0	
1	
4	
6	
1	
3	
8	
2	
4	
2	
1	
2	
3	
3	
1	
4	
6	
2	
3	
2	
4	
1	
3	
3	
3	
4	
2	
4	
11	
2	
1	
1	
2	
6	
5	
3	
3	
1	
5	
8	
2	
3	
6	
2	
3	
4	
0	
3	
1	
6	
4	
2	
5	
2	
3	
5	
5	
2	
3	
4	
1	
4	
4	
4	
6	
4	
2	
2	
2	
3	
2	
1	
7	
3	
3	
6	
3	
4	
5	
5	
5	
2	
3	
1	
2	
4	
2	
4	
5	
5	
2	
2	
3	
6	
11	
3	
3	
3	
1	
4	
5	
3	
2	
3	
1	
7	
4	
2	
3	
4	
1	
5	
5	
1	
2	
5	
4	
4	
8	
4	
2	
6	
3	
1	
4	
2	
4	
4	
2	
2	
4	
3	
3	
3	
1	
2	
5	
1	
3	
3	
2	
6	
3	
6	
3	
3	
3	
4	
4	
4	
0	
6	
8	
7	
5	
2	
5	
4	
4	
2	
4	
3	
2	
4	
5	
0	
3	
5	
8	
4	
2	
5	
3	
2	
6	
8	
3	
5	
0	
2	
3	
4	
2	
2	
4	
3	
7	
1	
4	
1	
4	
3	
2	
5	
5	
3	
3	
6	
6	
3	
4	
1	
5	
2	
3	
2	
2	
6	
5	
3	
3	
0	
5	
4	
2	
5	
5	
1	
4	
5	
3	
2	
3	
2	
3	
6	
5	
2	
2	
2	
3	
5	
6	
3	
2	
1	
8	
0	
2	
1	
1	
4	
4	
1	
2	
3	
7	
4	
5	
0	
4	
4	
4	
2	
2	
3	
5	
0	
4	
2	
2	
3	
7	
5	
10	
6	
2	
4	
2	
4	
3	
1	
2	
1	
3	
2	
6	
1	
2	
3	
4	
3	
6	
5	
3	
3	
5	
5	
3	
3	
5	
0	
0	
2	
1	
3	
2	
3	
6	
5	
4	
4	
4	
2	
1	
6	
3	
5	
6	
2	
5	
8	
0	
5	
3	
4	
1	
3	
2	
1	
6	
8	
2	
4	
7	
2	
3	
2	
4	
5	
1	
2	
1	
1	
3	
2	
3	
4	
2	
2	
3	
1	
3	
2	
3	
5	
2	
4	
4	
2	
3	
2	
6	
2	
4	
6	
5	
2	
2	
2	
4	
1	
1	
0	
4	
2	
2	
4	
4	
0	
3	
4	
2	
6	
3	
3	
2	
2	
3	
3	
3	
1	
3	
3	
4	
4	
4	
0	
2	
2	
3	
0	
2	
5	
0	
3	
3	
2	
5	
1	
4	
4	
3	
4	
6	
5	
6	
7	
2	
2	
3	
2	
2	
3	
1	
4	
3	
3	
5	
2	
3	
3	
3	
4	
5	
6	
2	
4	
4	
5	
0	
3	
1	
2	
4	
1	
3	
1	
1	
3	
2	
2	
1	
4	
4	
5	
2	
2	
2	
3	
1	
5	
2	
3	
2	
7	
3	
5	
3	
1	
6	
5	
4	
1	
0	
4	
3	
2	
1	
4	
2	
4	
4	
7	
3	
3	
3	
1	
3	
1	
4	
4	
5	
5	
1	
4	
5	
5	
4	
5	
0	
5	
4	
2	
3	
3	
4	
4	
1	
4	
1	
3	
0	
1	
1	
0	
5	
3	
4	
2	
2	
0	
3	
2	
3	
4	
2	
8	
2	
6	
3	
3	
3	
1	
2	
0	
2	
2	
2	
5	
2	
5	
3	
6	
1	
3	
5	
3	
4	
6	
2	
3	
4	
2	
2	
2	
3	
2	
3	
4	
1	
2	
0	
1	
1	
2	
4	
2	
2	
3	
6	
8	
3	
2	
2	
7	
2	
1	
5	
6	
4	
1	
4	
3	
3	
5	
4	
3	
3	
3	
2	
3	
6	
4	
4	
2	
2	
2	
3	
5	
3	
2	
1	
4	
1	
2	
2	
2	
5	
3	
0	
5	
0	
0	
3	
5	
5	
2	
3	
4	
1	
5	
2	
1	
2	
4	
5	
2	
2	
4	
2	
1	
2	
2	
5	
4	
2	
3	
8	
4	
4	
3	
1	
5	
5	
2	
2	
1	
4	
2	
1	
2	
3	
2	
3	
1	
1	
6	
2	
3	
5	
4	
4	
1	
4	
2	
6	
2	
2	
2	
7	
3	
2	
2	
4	
2	
3	
2	
2	
5	
2	
3	
1	
1	
5	
5	
3	
1	
2	
2	
3	
5	
2	
4	
4	
0	
3	
3	
3	
3	
1	
4	
5	
2	
5	
2	
5	
2	
4	
5	
3	
2	
5	
0	
3	
4	
5	
5	
4	
3	
5	
4	
4	
3	
2	
1	
3	
0	
6	
2	
5	
5	
4	
3	
2	
0	
1	
2	
3	
1	
3	
2	
4	
3	
3	
1	
0	
1	
11	
3	
3	
0	
2	
2	
5	
2	
2	
1	
3	
4	
2	
4	
1	
3	
2	
6	
4	
4	
2	
4	
4	
3	
6	
5	
4	
4	
4	
5	
4	
2	
1	
4	
4	
2	
8	
0	
0	
4	
6	
3	
4	
3	
5	
4	
1	
4	
1	
2	
1	
5	
3	
4	
2	
2	
0	
1	
0	
6	
1	
2	
2	
3	
2	
3	
2	
4	
4	
1	
5	
3	
2	
3	
6	
1	
3	
3	
1	
5	
2	
1	
2	
4	
3	
2	
0	
2	
3	
4	
4	
4	
1	
0	
1	
8	
2	
6	
4	
4	
5	
1	
5	
3	
3	
1	
3	
2	
2	
2	
3	
2	
4	
4	
2	
5	
2	
5	
1	
3	
1	
3	
7	
4	
3	
2	
1	
4	
2	
3	
0	
4	
4	
2	
2	
1	
0	
1	
5	
3	
6	
4	
3	
3	
5	
2	
2	
4	
4	
5	
2	
4	
1	
4	
3	
2	
0	
1	
4	
3	
1	
1	
1	
6	
5	
3	
5	
1	
3	
1	
0	
3	
2	
0	
2	
2	
4	
1	
2	
3	
3	
3	
2	
0	
3	
5	
2	
3	
2	
7	
3	
8	
4	
5	
1	
3	
0	
0	
1	
5	
3	
4	
4	
4	
8	
4	
2	
1	
4	
1	
5	
3	
1	
1	
2	
3	
1	
4	
2	
0	
3	
2	
5	
1	
3	
1	
3	
4	
4	
3	
2	
1	
1	
0	
0	
3	
4	
4	
3	
2	
2	
2	
1	
3	
4	
2	
1	
3	
0	
3	
2	
4	
4	
4	
0	
0	
5	
4	
5	
2	
3	
7	
2	
5	
1	
0	
4	
0	
4	
3	
4	
4	
5	
9	
4	
3	
2	
2	
1	
3	
2	
4	
2	
7	
3	
1	
6	
5	
5	
3	
0	
3	
4	
5	
3	
0	
3	
0	
5	
1	
3	
4	
1	
2	
1	
5	
4	
1	
1	
4	
4	
2	
4	
6	
1	
2	
4	
3	
3	
3	
0	
3	
2	
3	
4	
1	
2	
3	
5	
3	
3	
2	
1	
2	
4	
5	
3	
5	
1	
2	
1	
4	
3	
3	
2	
2	
0	
2	
0	
6	
2	
5	
1	
5	
2	
5	
4	
2	
2	
1	
0	
6	
1	
4	
2	
2	
4	
4	
5	
2	
3	
1	
2	
1	
2	
2	
0	
4	
2	
2	
4	
3	
0	
1	
4	
2	
0	
1	
5	
2	
2	
4	
2	
1	
2	
1	
3	
3	
2	
2	
2	
1	
1	
1	
1	
3	
1	
2	
4	
3	
5	
4	
2	
2	
4	
4	
1	
1	
3	
2	
2	
2	
1	
0	
5	
0	
2	
0	
3	
2	
1	
4	
2	
4	
5	
1	
4	
5	
0	
2	
3	
2	
3	
1	
4	
3	
3	
5	
2	
2	
2	
4	
2	
4	
3	
3	
2	
0	
3	
4	
2	
3	
5	
0	
4	
2	
2	
1	
0	
4	
3	
2	
1	
1	
2	
2	
2	
3	
3	
2	
7	
1	
2	
2	
1	
1	
5	
2	
3	
2	
6	
0	
2	
3	
4	
2	
1	
3	
0	
2	
5	
5	
0	
5	
6	
2	
1	
1	
2	
2	
4	
3	
2	
2	
1	
3	
2	
2	
3	
0	
2	
4	
2	
0	
2	
2	
1	
3	
5	
3	
4	
1	
6	
2	
3	
3	
4	
4	
0	
1	
5	
2	
2	
3	
2	
0	
3	
2	
4	
5	
3	
3	
2	
4	
7	
2	
6	
6	
1	
2	
3	
2	
3	
2	
1	
3	
1	
2	
8	
2	
6	
4	
3	
5	
4	
2	
1	
5	
1	
3	
0	
2	
3	
4	
1	
2	
2	
3	
3	
2	
2	
1	
1	
1	
3	
0	
3	
2	
1	
3	
4	
3	
2	
4	
5	
2	
3	
1	
2	
1	
2	
4	
3	
3	
4	
2	
1	
2	
3	
5	
3	
0	
3	
4	
3	
2	
2	
3	
1	
5	
2	
1	
1	
2	
4	
4	
2	
3	
3	
1	
2	
2	
2	
1	
5	
3	
1	
5	
1	
3	
3	
1	
2	
3	
2	
3	
4	
3	
1	
2	
0	
3	
3	
2	
3	
0	
4	
0	
2	
6	
4	
1	
1	
5	
0	
3	
2	
2	
2	
3	
3	
4	
3	
5	
0	
1	
4	
2	
4	
3	
2	
3	
1	
4	
3	
2	
2	
6	
5	
3	
5	
3	
2	
3	
1	
2	
4	
1	
4	
4	
1	
1	
3	
2	
3	
3	
1	
3	
2	
1	
0	
3	
2	
4	
1	
0	
2	
3	
3	
2	
3	
4	
1	
3	
2	
1	
2	
2	
5	
1	
3	
4	
2	
1	
2	
3	
3	
1	
1	
2	
5	
2	
1	
3	
0	
1	
2	
2	
0	
1	
5	
2	
2	
4	
0	
3	
4	
4	
4	
1	
3	
1	
2	
0	
4	
2	
3	
3	
2	
0	
2	
2	
3	
4	
2	
4	
0	
0	
1	
3	
0	
2	
6	
1	
1	
3	
3	
6	
3	
3	
2	
3	
4	
3	
2	
2	
3	
3	
2	
0	
0	
2	
0	
1	
1	
6	
5	
0	
3	
1	
5	
7	
2	
0	
2	
4	
3	
1	
1	
2	
2	
3	
3	
0	
4	
0	
3	
1	
2	
4	
4	
2	
3	
2	
3	
2	
3	
6	
1	
2	
0	
5	
2	
0	
1	
0	
4	
1	
6	
1	
1	
2	
3	
3	
1	
3	
2	
1	
3	
2	
0	
2	
0	
1	
3	
2	
1	
1	
0	
3	
6	
4	
1	
4	
5	
0	
1	
1	
3	
3	
3	
2	
4	
1	
4	
0	
1	
2	
3	
0	
1	
2	
0	
1	
2	
1	
3	
2	
3	
4	
0	
4	
2	
1	
2	
1	
2	
2	
2	
3	
4	
2	
2	
3	
0	
6	
1	
1	
3	
2	
4	
4	
3	
2	
4	
5	
2	
2	
0	
3	
4	
2	
2	
5	
3	
2	
2	
0	
1	
0	
5	
1	
3	
1	
1	
1	
1	
4	
2	
3	
3	
4	
2	
1	
0	
1	
3	
1	
2	
1	
2	
5	
4	
1	
4	
2	
2	
2	
1	
0	
1	
3	
2	
2	
0	
4	
0	
1	
3	
1	
3	
2	
3	
3	
1	
1	
1	
2	
0	
0	
2	
2	
5	
3	
3	
5	
0	
1	
4	
4	
4	
1	
3	
6	
3	
1	
3	
2	
4	
1	
5	
1	
2	
2	
2	
3	
2	
1	
1	
6	
2	
3	
3	
2	
0	
2	
2	
2	
4	
4	
2	
2	
3	
2	
3	
2	
4	
1	
1	
0	
1	
2	
1	
1	
4	
2	
3	
4	
6	
3	
6	
3	
2	
1	
3	
4	
0	
0	
5	
1	
1	
1	
2	
2	
4	
1	
1	
2	
2	
1	
2	
3	
4	
0	
4	
2	
1	
4	
2	
0	
2	
1	
4	
2	
3	
2	
1	
4	
7	
5	
4	
2	
0	
1	
3	
1	
3	
3	
1	
0	
5	
4	
2	
2	
2	
4	
4	
1	
1	
3	
9	
5	
1	
4	
1	
8	
2	
1	
3	
2	
0	
2	
2	
1	
4	
0	
1	
3	
2	
2	
4	
1	
2	
2	
3	
4	
2	
5	
1	
3	
1	
3	
2	
2	
0	
1	
4	
5	
3	
2	
5	
1	
1	
2	
2	
1	
2	
2	
4	
3	
3	
0	
1	
6	
3	
1	
0	
3	
5	
2	
2	
2	
3	
2	
4	
1	
0	
1	
1	
3	
3	
2	
0	
5	
1	
6	
3	
2	
4	
2	
1	
1	
4	
4	
4	
6	
3	
1	
0	
1	
1	
2	
3	
3	
1	
0	
3	
2	
1	
2	
3	
1	
2	
3	
2	
3	
2	
0	
2	
1	
2	
3	
4	
1	
4	
1	
3	
4	
3	
2	
4	
4	
2	
5	
1	
3	
2	
2	
1	
2	
2	
1	
1	
1	
4	
4	
4	
1	
1	
3	
2	
1	
2	
1	
5	
1	
5	
2	
4	
1	
3	
1	
0	
2	
3	
3	
0	
2	
2	
1	
1	
0	
2	
3	
0	
6	
4	
2	
4	
1	
1	
1	
2	
5	
1	
2	
0	
2	
1	
4	
1	
1	
2	
5	
4	
1	
2	
6	
3	
4	
2	
0	
2	
4	
4	
3	
2	
2	
0	
4	
2	
4	
1	
1	
0	
3	
1	
4	
5	
2	
4	
5	
3	
4	
4	
1	
3	
4	
4	
9	
5	
1	
2	
5	
2	
4	
0	
0	
3	
1	
2	
1	
2	
1	
3	
5	
2	
2	
3	
1	
4	
1	
0	
3	
2	
6	
6	
3	
2	
0	
6	
1	
1	
3	
3	
1	
1	
3	
1	
1	
2	
4	
3	
2	
3	
1	
1	
3	
2	
6	
0	
2	
1	
0	
1	
2	
3	
0	
3	
2	
7	
2	
2	
2	
3	
2	
0	
1	
1	
0	
2	
3	
3	
2	
2	
1	
5	
4	
3	
3	
3	
5	
3	
2	
2	
6	
2	
1	
3	
0	
0	
4	
2	
2	
4	
4	
0	
0	
0	
1	
6	
3	
2	
0	
3	
2	
2	
3	
2	
1	
2	
2	
2	
3	
2	
4	
0	
4	
2	
6	
2	
2	
0	
1	
4	
0	
1	
2	
3	
1	
3	
4	
2	
2	
2	
2	
2	
1	
1	
0	
2	
3	
4	
2	
3	
4	
1	
3	
5	
3	
3	
3	
1	
4	
4	
1	
1	
2	
2	
3	
1	
2	
0	
2	
2	
2	
4	
2	
0	
0	
4	
3	
2	
0	
5	
2	
2	
2	
0	
5	
1	
5	
3	
2	
2	
3	
4	
2	
0	
0	
2	
1	
4	
3	
2	
0	
1	
1	
1	
2	
4	
0	
3	
1	
0	
6	
4	
6	
1	
0	
2	
1	
1	
2	
0	
4	
1	
2	
0	
1	
2	
1	
3	
1	
4	
3	
1	
1	
7	
2	
4	
4	
2	
2	
2	
0	
1	
3	
2	
1	
2	
3	
5	
2	
3	
4	
2	
4	
2	
3	
3	
2	
4	
2	
3	
3	
3	
3	
3	
1	
1	
2	
2	
3	
1	
3	
1	
3	
2	
1	
3	
1	
2	
1	
0	
2	
3	
3	
0	
1	
4	
3	
4	
2	
4	
3	
3	
1	
4	
2	
1	
4	
2	
4	
2	
1	
5	
3	
1	
1	
1	
2	
3	
0	
3	
4	
6	
2	
1	
1	
1	
2	
2	
0	
1	
0	
3	
2	
0	
2	
2	
1	
1	
2	
4	
3	
6	
1	
3	
1	
1	
2	
1	
5	
4	
4	
0	
3	
5	
0	
2	
5	
1	
2	
0	
3	
3	
1	
0	
4	
3	
0	
3	
4	
2	
4	
2	
3	
3	
1	
3	
0	
1	
2	
2	
2	
1	
0	
1	
2	
3	
2	
0	
4	
4	
3	
3	
5	
3	
0	
2	
1	
0	
0	
2	
4	
2	
3	
0	
3	
3	
3	
2	
2	
1	
2	
1	
3	
2	
3	
2	
3	
3	
3	
0	
6	
2	
1	
1	
1	
1	
1	
0	
1	
1	
2	
2	
5	
3	
4	
4	
2	
3	
3	
0	
0	
2	
0	
3	
1	
2	
3	
1	
2	
1	
2	
1	
2	
0	
1	
1	
2	
1	
2	
3	
3	
0	
2	
1	
0	
2	
0	
4	
1	
4	
4	
5	
1	
1	
4	
3	
2	
3	
2	
3	
1	
3	
2	
1	
2	
0	
1	
2	
2	
3	
1	
2	
3	
3	
3	
4	
1	
5	
1	
2	
1	
3	
2	
0	
3	
4	
3	
2	
1	
3	
1	
1	
1	
2	
2	
3	
1	
1	
3	
0	
5	
6	
1	
4	
1	
1	
4	
5	
2	
1	
0	
3	
1	
2	
2	
4	
3	
5	
0	
2	
4	
2	
3	
1	
0	
1	
0	
5	
3	
2	
2	
0	
1	
2	
3	
0	
1	
2	
1	
3	
2	
3	
3	
5	
2	
4	
1	
3	
3	
2	
0	
3	
1	
0	
3	
1	
2	
3	
4	
1	
2	
3	
1	
1	
5	
2	
3	
5	
3	
3	
1	
0	
1	
3	
4	
1	
4	
2	
2	
1	
2	
1	
2	
3	
2	
3	
0	
1	
1	
2	
1	
3	
2	
1	
1	
3	
0	
1	
5	
5	
3	
1	
5	
4	
3	
3	
0	
2	
0	
3	
0	
1	
0	
2	
2	
1	
3	
1	
2	
4	
2	
2	
5	
3	
2	
1	
4	
1	
1	
4	
3	
1	
2	
1	
0	
2	
3	
1	
1	
4	
0	
4	
0	
2	
0	
0	
0	
4	
2	
2	
1	
1	
1	
1	
1	
2	
2	
1	
3	
3	
3	
3	
1	
0	
4	
2	
3	
3	
4	
3	
3	
3	
1	
2	
3	
1	
3	
5	
1	
1	
2	
1	
5	
1	
1	
1	
0	
6	
2	
2	
3	
2	
3	
1	
0	
2	
1	
2	
2	
3	
0	
1	
2	
3	
1	
3	
3	
2	
2	
1	
2	
1	
2	
0	
3	
2	
3	
5	
2	
1	
3	
1	
0	
1	
5	
1	
2	
3	
1	
1	
2	
5	
3	
1	
3	
3	
0	
3	
1	
3	
1	
2	
2	
1	
1	
3	
1	
2	
1	
2	
3	
1	
2	
0	
0	
1	
2	
3	
1	
4	
4	
3	
2	
3	
3	
4	
2	
2	
1	
5	
0	
1	
1	
0	
2	
3	
0	
2	
1	
1	
2	
2	
1	
3	
2	
3	
0	
1	
3	
2	
4	
0	
1	
2	
2	
3	
3	
3	
2	
2	
0	
1	
2	
1	
4	
2	
1	
3	
3	
4	
3	
5	
2	
1	
0	
2	
4	
4	
3	
4	
3	
1	
3	
2	
0	
2	
1	
1	
2	
0	
2	
6	
1	
2	
2	
1	
4	
0	
4	
0	
1	
4	
0	
1	
0	
3	
5	
5	
1	
5	
3	
3	
1	
2	
3	
0	
3	
3	
0	
2	
2	
1	
3	
0	
2	
2	
0	
1	
2	
1	
3	
1	
2	
3	
1	
1	
1	
0	
2	
3	
1	
5	
1	
2	
2	
2	
2	
2	
2	
1	
1	
2	
5	
1	
2	
1	
3	
2	
4	
4	
2	
4	
5	
2	
2	
2	
2	
2	
2	
2	
2	
2	
3	
3	
2	
2	
4	
4	
2	
1	
3	
1	
3	
7	
1	
1	
2	
0	
4	
2	
3	
0	
3	
3	
3	
0	
1	
3	
3	
3	
2	
2	
2	
2	
0	
3	
0	
3	
1	
1	
2	
3	
3	
0	
1	
2	
2	
1	
1	
1	
2	
2	
3	
0	
0	
1	
4	
3	
3	
3	
1	
1	
1	
2	
1	
1	
2	
1	
1	
1	
1	
2	
4	
2	
2	
3	
5	
3	
1	
2	
3	
4	
2	
5	
1	
2	
4	
2	
1	
1	
2	
5	
2	
3	
3	
4	
8	
3	
1	
2	
4	
2	
2	
2	
0	
2	
1	
2	
0	
4	
5	
4	
2	
3	
4	
2	
2	
1	
3	
4	
2	
2	
4	
1	
3	
1	
2	
2	
0	
2	
3	
1	
0	
3	
0	
2	
3	
4	
2	
3	
2	
0	
0	
8	
2	
2	
0	
4	
3	
1	
0	
4	
1	
2	
3	
0	
3	
4	
1	
0	
2	
1	
3	
1	
1	
3	
1	
2	
3	
0	
4	
4	
1	
1	
0	
3	
3	
1	
2	
2	
2	
1	
1	
2	
4	
1	
1	
4	
2	
2	
2	
2	
3	
1	
1	
1	
1	
1	
5	
2	
4	
0	
1	
1	
2	
2	
1	
2	
4	
1	
0	
0	
2	
5	
2	
2	
5	
2	
2	
2	
0	
2	
1	
2	
1	
1	
2	
3	
0	
2	
1	
0	
0	
2	
3	
3	
1	
3	
2	
2	
2	
1	
3	
3	
3	
4	
3	
2	
4	
3	
0	
0	
2	
4	
1	
1	
3	
4	
3	
1	
4	
1	
3	
1	
4	
0	
2	
3	
0	
2	
4	
0	
2	
3	
1	
0	
0	
3	
2	
1	
1	
2	
1	
0	
3	
3	
2	
1	
1	
0	
1	
1	
4	
1	
2	
1	
0	
3	
3	
3	
3	
2	
4	
0	
0	
6	
2	
0	
2	
3	
0	
1	
2	
2	
4	
2	
2	
2	
1	
0	
0	
4	
3	
0	
1	
2	
0	
0	
4	
0	
1	
3	
4	
3	
0	
1	
3	
2	
1	
1	
3	
1	
2	
5	
5	
4	
3	
2	
2	
2	
1	
1	
1	
2	
2	
0	
0	
2	
3	
0	
0	
2	
1	
4	
2	
2	
0	
3	
1	
3	
2	
0	
0	
2	
2	
0	
0	
1	
4	
4	
3	
4	
0	
2	
3	
2	
1	
1	
1	
1	
5	
3	
1	
3	
2	
1	
4	
3	
3	
2	
2	
3	
0	
0	
2	
0	
3	
1	
0	
2	
2	
1	
4	
1	
0	
0	
1	
0	
0	
2	
4	
0	
1	
3	
1	
2	
0	
1	
3	
0	
2	
0	
0	
3	
2	
2	
1	
1	
4	
1	
2	
2	
3	
0	
1	
1	
2	
1	
2	
2	
3	
2	
2	
1	
1	
2	
1	
1	
1	
3	
1	
4	
1	
2	
1	
2	
0	
2	
4	
5	
2	
0	
0	
5	
2	
3	
2	
8	
1	
1	
0	
1	
4	
0	
1	
3	
4	
1	
4	
4	
2	
3	
2	
4	
2	
2	
0	
3	
2	
6	
0	
4	
0	
2	
0	
2	
1	
4	
0	
3	
2	
2	
2	
5	
2	
0	
2	
1	
1	
1	
3	
2	
3	
1	
3	
2	
0	
2	
3	
2	
1	
2	
3	
1	
1	
2	
3	
0	
5	
1	
7	
2	
3	
1	
1	
0	
0	
1	
2	
2	
3	
4	
4	
3	
2	
2	
3	
4	
1	
3	
1	
1	
1	
4	
3	
0	
1	
2	
4	
3	
4	
2	
3	
3	
3	
1	
0	
3	
2	
1	
5	
2	
0	
3	
1	
1	
1	
2	
1	
1	
1	
2	
2	
2	
1	
2	
2	
0	
1	
0	
2	
4	
1	
1	
1	
1	
2	
2	
2	
1	
6	
0	
2	
3	
1	
3	
3	
0	
2	
1	
2	
2	
4	
0	
0	
0	
1	
1	
3	
0	
4	
1	
2	
3	
0	
2	
2	
2	
0	
0	
3	
5	
0	
2	
0	
1	
2	
0	
2	
2	
0	
4	
3	
1	
2	
1	
1	
2	
0	
0	
0	
1	
2	
3	
0	
2	
2	
5	
2	
1	
5	
0	
1	
3	
0	
3	
4	
7	
1	
5	
1	
1	
2	
0	
4	
1	
3	
0	
1	
1	
5	
3	
2	
2	
2	
2	
1	
1	
3	
2	
1	
4	
2	
0	
1	
2	
1	
0	
1	
0	
4	
0	
6	
1	
3	
3	
1	
4	
1	
2	
3	
2	
8	
3	
0	
1	
0	
4	
2	
2	
3	
1	
1	
4	
4	
2	
3	
1	
3	
1	
2	
1	
2	
2	
3	
1	
2	
1	
0	
3	
2	
2	
3	
0	
0	
2	
0	
1	
1	
4	
2	
0	
1	
1	
1	
2	
0	
1	
4	
1	
1	
2	
2	
3	
0	
0	
3	
1	
1	
3	
0	
4	
1	
1	
1	
0	
2	
0	
1	
0	
2	
1	
0	
1	
1	
0	
2	
5	
1	
2	
1	
2	
2	
2	
3	
2	
0	
3	
4	
1	
4	
1	
1	
1	
1	
2	
1	
0	
3	
1	
0	
3	
3	
0	
5	
1	
3	
3	
1	
0	
2	
2	
4	
0	
4	
1	
2	
4	
1	
2	
1	
0	
4	
2	
0	
2	
1	
3	
0	
1	
2	
1	
1	
0	
1	
2	
1	
2	
1	
3	
1	
1	
3	
2	
2	
3	
0	
0	
2	
1	
0	
3	
3	
2	
1	
1	
1	
2	
1	
3	
1	
1	
2	
1	
1	
1	
2	
0	
0	
2	
2	
3	
2	
0	
6	
2	
2	
2	
4	
2	
2	
1	
5	
2	
1	
2	
2	
0	
3	
1	
0	
1	
1	
1	
4	
4	
3	
1	
0	
2	
2	
1	
2	
1	
3	
2	
1	
3	
1	
2	
0	
4	
1	
0	
1	
1	
3	
2	
1	
0	
0	
3	
3	
3	
1	
3	
1	
3	
2	
1	
2	
2	
1	
3	
4	
5	
1	
2	
1	
1	
2	
2	
2	
4	
2	
2	
2	
1	
0	
2	
1	
5	
3	
2	
3	
2	
3	
3	
0	
0	
2	
1	
1	
2	
3	
2	
1	
2	
0	
1	
0	
4	
0	
2	
5	
3	
3	
1	
2	
0	
1	
1	
1	
1	
1	
0	
0	
0	
0	
0	
0	
0	
0	
0	
0	
0	
0	
0	
0	
0	
0	
0	
0	
0	
0	
