#PicoHarp 300  Histogram Data			02/27/2023 03:03:41 PM
#channels per curve
3907
#display curve no.
0	
#memory block no.
0	
#ns/channel
0.1280	
#counts
5	
2	
3	
5	
1	
0	
3	
1	
3	
1	
3	
5	
1	
1	
1	
1	
2	
3	
0	
3	
2	
2	
4	
2	
0	
3	
2	
4	
3	
3	
2	
4	
5	
0	
1	
2	
4	
4	
2	
5	
3	
6	
3	
1	
2	
2	
3	
0	
1	
2	
1	
4	
1	
1	
0	
1	
0	
1	
1	
1	
2	
3	
2	
6	
4	
3	
3	
1	
2	
3	
3	
2	
2	
2	
5	
5	
1	
3	
2	
1	
3	
0	
1	
5	
2	
3	
1	
1	
4	
2	
4	
1	
0	
2	
4	
3	
8	
3	
3	
6	
0	
3	
2	
2	
2	
1	
2	
2	
7	
4	
3	
2	
2	
1	
2	
0	
1	
2	
2	
3	
2	
2	
1	
0	
3	
3	
3	
1	
2	
6	
3	
2	
5	
4	
2	
0	
1	
1	
3	
0	
4	
1	
2	
4	
2	
3	
3	
3	
2	
4	
1	
2	
2	
0	
2	
4	
0	
6	
3	
6	
2	
2	
2	
1	
8	
1	
2	
3	
4	
1	
4	
4	
2	
4	
5	
1	
2	
2	
3	
2	
1	
2	
0	
3	
0	
2	
6	
5	
2	
2	
0	
2	
5	
2	
2	
7	
1	
1	
5	
4	
1	
3	
4	
3	
1	
4	
2	
1	
8	
2	
1	
4	
2	
3	
1	
1	
1	
3	
1	
1	
3	
4	
4	
8	
1	
2	
3	
2	
2	
3	
3	
4	
1	
1	
4	
1	
1	
2	
3	
2	
5	
1	
3	
6	
10	
46	
104	
159	
220	
268	
277	
282	
329	
302	
302	
321	
296	
278	
257	
254	
241	
251	
251	
232	
240	
202	
230	
182	
230	
210	
224	
182	
194	
186	
203	
195	
173	
181	
207	
191	
187	
182	
172	
175	
162	
164	
189	
183	
171	
166	
167	
173	
135	
136	
161	
152	
163	
131	
164	
138	
134	
148	
139	
127	
143	
163	
150	
136	
139	
157	
130	
121	
121	
109	
129	
136	
116	
150	
112	
124	
117	
125	
130	
120	
120	
118	
113	
121	
139	
114	
123	
109	
96	
95	
104	
112	
106	
124	
112	
112	
126	
107	
108	
114	
96	
104	
92	
99	
115	
116	
94	
97	
95	
91	
75	
94	
93	
108	
78	
96	
96	
84	
88	
91	
86	
82	
89	
87	
85	
102	
75	
81	
82	
76	
80	
83	
71	
75	
88	
84	
73	
78	
73	
70	
76	
89	
70	
69	
66	
74	
71	
83	
67	
67	
70	
80	
60	
69	
80	
80	
64	
73	
47	
62	
62	
53	
83	
61	
70	
69	
66	
51	
68	
66	
61	
66	
64	
58	
64	
56	
55	
67	
70	
54	
53	
66	
75	
67	
60	
69	
55	
63	
59	
51	
55	
58	
57	
53	
55	
60	
41	
48	
63	
46	
54	
48	
53	
44	
37	
48	
41	
43	
42	
52	
55	
62	
42	
64	
49	
54	
57	
44	
54	
39	
47	
39	
52	
37	
43	
60	
46	
36	
41	
39	
48	
45	
47	
53	
41	
40	
41	
43	
48	
46	
40	
39	
42	
39	
43	
52	
37	
35	
44	
44	
45	
57	
35	
46	
34	
39	
32	
55	
37	
40	
52	
42	
35	
33	
41	
33	
42	
50	
37	
36	
30	
29	
34	
33	
30	
38	
31	
33	
24	
39	
37	
46	
35	
29	
26	
30	
36	
32	
27	
38	
42	
25	
29	
30	
26	
22	
23	
32	
27	
33	
31	
27	
35	
32	
33	
40	
32	
31	
32	
32	
34	
34	
34	
33	
26	
33	
39	
35	
31	
30	
34	
32	
20	
23	
29	
20	
26	
24	
30	
20	
33	
26	
22	
23	
33	
30	
20	
15	
24	
30	
15	
25	
22	
22	
27	
31	
20	
19	
25	
22	
37	
25	
16	
27	
18	
26	
30	
27	
25	
32	
35	
28	
24	
26	
21	
18	
26	
28	
29	
26	
15	
22	
22	
19	
17	
23	
21	
21	
25	
30	
13	
19	
23	
15	
14	
20	
30	
27	
22	
20	
12	
24	
18	
16	
24	
16	
21	
14	
19	
26	
12	
22	
27	
24	
23	
23	
11	
17	
16	
15	
17	
27	
19	
21	
13	
20	
22	
27	
23	
17	
16	
20	
18	
20	
20	
17	
21	
16	
19	
15	
15	
15	
22	
19	
19	
21	
21	
18	
12	
16	
18	
19	
12	
16	
18	
27	
16	
17	
17	
20	
19	
14	
14	
16	
17	
24	
11	
14	
17	
26	
12	
24	
17	
15	
17	
16	
10	
16	
15	
16	
12	
20	
19	
11	
10	
13	
15	
20	
13	
12	
16	
19	
16	
13	
14	
20	
13	
17	
20	
18	
12	
14	
12	
23	
19	
17	
16	
11	
13	
12	
16	
15	
13	
17	
15	
13	
14	
15	
15	
11	
16	
10	
17	
9	
10	
15	
11	
9	
12	
10	
13	
14	
17	
11	
15	
16	
20	
11	
20	
15	
11	
10	
14	
23	
10	
12	
14	
12	
14	
17	
8	
14	
15	
8	
10	
16	
16	
12	
14	
20	
12	
12	
7	
10	
13	
11	
15	
8	
20	
13	
15	
15	
10	
13	
12	
14	
14	
11	
12	
14	
8	
13	
13	
13	
13	
8	
16	
17	
9	
9	
16	
18	
10	
10	
14	
16	
12	
12	
8	
6	
8	
15	
7	
9	
14	
13	
7	
9	
13	
14	
17	
13	
10	
15	
16	
13	
10	
9	
9	
10	
8	
8	
12	
8	
7	
9	
9	
9	
11	
8	
10	
6	
8	
5	
12	
13	
16	
8	
11	
15	
11	
6	
9	
13	
8	
16	
11	
12	
10	
10	
7	
11	
8	
6	
7	
11	
6	
15	
4	
6	
10	
13	
9	
13	
8	
7	
9	
6	
9	
7	
11	
7	
13	
11	
11	
8	
10	
3	
9	
3	
9	
5	
13	
9	
8	
9	
6	
12	
7	
10	
10	
2	
6	
9	
8	
6	
9	
11	
6	
9	
9	
10	
10	
5	
11	
6	
5	
8	
9	
10	
10	
11	
12	
4	
8	
14	
5	
6	
8	
5	
8	
10	
5	
13	
9	
7	
10	
8	
12	
5	
9	
8	
8	
7	
9	
5	
8	
7	
11	
15	
10	
9	
6	
9	
7	
10	
8	
6	
12	
6	
12	
5	
5	
7	
8	
8	
8	
8	
7	
6	
9	
10	
10	
6	
13	
11	
8	
5	
8	
4	
8	
7	
9	
7	
11	
7	
14	
12	
7	
7	
3	
5	
4	
6	
10	
5	
7	
12	
6	
4	
6	
8	
9	
11	
13	
6	
8	
5	
11	
9	
10	
10	
4	
6	
8	
13	
4	
7	
8	
12	
6	
5	
12	
8	
6	
6	
7	
5	
6	
6	
3	
4	
2	
5	
7	
5	
2	
6	
8	
7	
6	
5	
4	
8	
5	
6	
12	
7	
7	
6	
6	
11	
5	
6	
4	
6	
6	
3	
10	
2	
9	
4	
10	
5	
3	
6	
9	
4	
7	
5	
5	
8	
11	
5	
6	
5	
5	
7	
5	
10	
8	
8	
4	
5	
1	
4	
5	
14	
5	
8	
3	
5	
8	
12	
10	
8	
5	
10	
5	
7	
9	
8	
4	
6	
8	
4	
6	
7	
6	
8	
9	
6	
6	
8	
6	
5	
9	
5	
8	
8	
3	
11	
3	
5	
5	
4	
7	
5	
8	
6	
7	
9	
10	
9	
2	
5	
8	
4	
5	
7	
3	
2	
11	
3	
9	
5	
2	
5	
6	
6	
6	
8	
6	
8	
6	
9	
5	
7	
6	
3	
6	
3	
4	
8	
11	
7	
4	
4	
6	
5	
2	
5	
6	
6	
6	
3	
4	
3	
6	
4	
9	
6	
7	
10	
4	
3	
2	
8	
5	
5	
6	
3	
6	
4	
3	
4	
8	
3	
6	
4	
5	
6	
6	
6	
9	
5	
5	
12	
8	
7	
5	
6	
8	
4	
5	
7	
3	
6	
3	
8	
7	
4	
5	
7	
2	
5	
9	
7	
5	
2	
5	
7	
3	
4	
1	
5	
11	
5	
3	
5	
10	
6	
10	
5	
2	
4	
1	
3	
3	
7	
2	
4	
4	
6	
3	
4	
4	
5	
6	
4	
6	
11	
8	
4	
4	
5	
7	
4	
4	
9	
3	
6	
5	
7	
4	
0	
10	
5	
2	
7	
3	
4	
4	
9	
1	
5	
6	
2	
7	
5	
4	
4	
7	
3	
3	
7	
4	
5	
5	
10	
6	
4	
8	
6	
9	
8	
3	
2	
1	
1	
4	
3	
4	
6	
6	
3	
5	
3	
3	
3	
4	
6	
2	
3	
8	
1	
6	
2	
4	
7	
5	
6	
5	
5	
4	
3	
5	
3	
7	
2	
6	
6	
8	
9	
4	
4	
2	
2	
2	
2	
4	
5	
3	
5	
1	
1	
5	
1	
6	
6	
3	
5	
1	
7	
3	
4	
4	
1	
6	
2	
5	
8	
2	
7	
5	
4	
4	
7	
6	
6	
7	
5	
4	
4	
3	
5	
2	
3	
2	
4	
3	
4	
7	
3	
6	
2	
7	
4	
2	
3	
4	
3	
10	
4	
2	
2	
2	
4	
6	
2	
0	
3	
3	
4	
3	
2	
6	
4	
2	
4	
5	
4	
3	
2	
7	
4	
6	
3	
2	
7	
7	
4	
4	
7	
2	
3	
1	
3	
3	
3	
5	
6	
4	
3	
5	
3	
4	
5	
4	
3	
1	
3	
4	
2	
7	
5	
3	
6	
4	
5	
7	
4	
1	
2	
4	
2	
2	
2	
5	
5	
9	
3	
6	
4	
8	
2	
2	
4	
3	
8	
3	
5	
5	
4	
5	
5	
2	
6	
3	
4	
8	
2	
0	
5	
1	
3	
2	
1	
8	
7	
5	
3	
2	
4	
4	
4	
5	
3	
4	
3	
4	
3	
2	
2	
3	
2	
2	
5	
4	
4	
1	
5	
8	
3	
6	
2	
4	
2	
4	
6	
6	
6	
4	
3	
2	
3	
3	
5	
3	
4	
5	
3	
4	
5	
3	
3	
0	
6	
7	
4	
1	
4	
3	
1	
1	
4	
3	
5	
5	
6	
0	
3	
4	
3	
5	
3	
4	
1	
3	
10	
4	
0	
3	
9	
2	
3	
1	
1	
8	
4	
6	
2	
3	
7	
2	
2	
3	
1	
2	
3	
5	
5	
3	
5	
6	
0	
3	
4	
3	
2	
7	
1	
3	
8	
2	
5	
5	
3	
3	
1	
3	
1	
5	
6	
2	
5	
3	
1	
0	
6	
4	
4	
5	
9	
4	
9	
4	
4	
3	
3	
2	
3	
3	
3	
4	
8	
5	
5	
6	
4	
2	
1	
3	
7	
7	
2	
2	
2	
1	
2	
2	
5	
8	
3	
4	
3	
4	
1	
4	
4	
0	
3	
4	
5	
2	
5	
3	
3	
3	
4	
3	
3	
7	
4	
5	
6	
3	
5	
4	
6	
9	
0	
6	
7	
9	
4	
3	
4	
5	
4	
4	
9	
2	
2	
7	
2	
2	
6	
4	
2	
2	
4	
2	
2	
2	
2	
6	
6	
3	
1	
5	
3	
3	
4	
5	
4	
2	
8	
2	
3	
5	
0	
3	
4	
2	
6	
1	
3	
3	
3	
2	
5	
2	
3	
5	
0	
1	
4	
1	
5	
1	
3	
1	
7	
1	
4	
6	
5	
1	
4	
4	
1	
3	
6	
1	
6	
5	
4	
2	
3	
4	
6	
6	
2	
2	
2	
1	
5	
4	
4	
2	
2	
4	
4	
5	
2	
1	
3	
2	
2	
0	
3	
2	
6	
5	
4	
3	
6	
2	
6	
9	
3	
4	
6	
4	
0	
3	
6	
5	
7	
4	
4	
2	
4	
4	
4	
1	
5	
5	
3	
3	
3	
3	
4	
4	
3	
2	
1	
2	
4	
1	
7	
3	
3	
3	
1	
5	
2	
4	
5	
2	
5	
3	
1	
1	
3	
6	
4	
1	
2	
6	
5	
3	
1	
0	
8	
2	
1	
5	
4	
5	
3	
4	
4	
2	
1	
7	
3	
4	
6	
1	
5	
3	
2	
1	
4	
2	
5	
5	
1	
2	
4	
6	
6	
5	
7	
3	
3	
2	
4	
1	
2	
1	
3	
5	
2	
0	
3	
2	
4	
4	
4	
1	
4	
2	
5	
3	
4	
3	
1	
6	
4	
3	
4	
2	
3	
1	
3	
2	
2	
4	
4	
3	
3	
1	
4	
1	
6	
2	
5	
4	
4	
2	
3	
3	
3	
2	
5	
2	
5	
3	
1	
1	
4	
2	
7	
1	
3	
6	
4	
5	
3	
3	
3	
4	
7	
4	
1	
1	
0	
4	
3	
4	
4	
2	
0	
2	
2	
2	
4	
3	
6	
5	
7	
5	
5	
2	
3	
3	
5	
5	
2	
4	
5	
4	
5	
5	
1	
4	
2	
3	
2	
1	
3	
1	
2	
4	
2	
5	
3	
3	
2	
4	
3	
6	
3	
4	
3	
4	
2	
3	
2	
2	
6	
2	
1	
3	
0	
8	
3	
4	
2	
0	
1	
0	
1	
6	
6	
1	
6	
3	
1	
2	
2	
3	
4	
4	
1	
5	
2	
0	
1	
6	
6	
2	
1	
2	
1	
6	
3	
3	
3	
3	
1	
2	
4	
5	
2	
3	
4	
1	
3	
5	
5	
3	
0	
4	
4	
3	
6	
5	
4	
3	
9	
6	
5	
5	
5	
6	
5	
2	
3	
2	
4	
3	
7	
5	
6	
4	
3	
2	
1	
6	
1	
0	
4	
1	
2	
3	
0	
5	
4	
5	
7	
4	
4	
2	
2	
3	
5	
3	
3	
4	
5	
2	
5	
3	
2	
2	
4	
2	
3	
4	
1	
4	
4	
1	
1	
5	
4	
3	
4	
2	
4	
3	
4	
2	
3	
4	
4	
5	
2	
5	
4	
3	
2	
1	
2	
7	
5	
3	
1	
7	
2	
0	
2	
1	
3	
2	
2	
4	
1	
4	
3	
1	
2	
4	
4	
4	
5	
1	
2	
5	
2	
3	
4	
4	
5	
5	
1	
1	
2	
2	
2	
2	
3	
0	
4	
5	
5	
3	
4	
2	
5	
2	
2	
4	
4	
4	
4	
7	
1	
1	
3	
7	
4	
1	
4	
5	
3	
2	
4	
3	
3	
1	
4	
3	
1	
2	
4	
7	
0	
1	
4	
1	
3	
3	
5	
1	
4	
2	
6	
1	
1	
2	
4	
2	
2	
2	
2	
3	
4	
3	
2	
6	
3	
0	
1	
7	
5	
3	
5	
2	
1	
6	
4	
4	
2	
2	
6	
2	
6	
4	
2	
0	
2	
0	
5	
1	
2	
3	
5	
5	
2	
4	
3	
2	
2	
3	
3	
3	
3	
3	
0	
2	
3	
5	
3	
2	
3	
2	
3	
5	
2	
1	
2	
2	
6	
6	
1	
5	
1	
4	
2	
4	
2	
2	
8	
4	
1	
6	
3	
3	
4	
1	
4	
2	
1	
4	
1	
4	
2	
4	
3	
3	
4	
5	
3	
3	
4	
2	
1	
2	
2	
5	
1	
3	
1	
6	
1	
1	
1	
3	
1	
2	
3	
2	
6	
2	
4	
3	
2	
5	
4	
7	
2	
2	
3	
1	
2	
2	
2	
7	
2	
3	
3	
3	
5	
4	
4	
3	
2	
4	
3	
2	
2	
1	
7	
2	
1	
1	
4	
1	
3	
5	
2	
5	
1	
3	
4	
1	
4	
1	
8	
4	
5	
4	
6	
3	
1	
0	
3	
3	
4	
0	
1	
2	
3	
2	
3	
3	
2	
1	
3	
4	
5	
4	
1	
2	
4	
5	
5	
2	
3	
1	
2	
3	
3	
2	
1	
4	
1	
2	
3	
5	
2	
3	
4	
2	
0	
3	
2	
2	
2	
1	
2	
1	
3	
3	
5	
4	
4	
1	
3	
2	
4	
1	
3	
2	
0	
2	
3	
5	
0	
1	
5	
2	
3	
2	
1	
2	
1	
3	
1	
2	
1	
3	
1	
4	
3	
1	
4	
3	
1	
4	
4	
4	
4	
2	
5	
3	
1	
1	
0	
5	
3	
2	
4	
3	
1	
3	
4	
3	
3	
4	
4	
0	
3	
3	
2	
2	
4	
4	
3	
4	
2	
3	
3	
2	
1	
3	
3	
3	
3	
2	
6	
3	
2	
8	
3	
2	
2	
8	
2	
2	
4	
0	
0	
6	
4	
3	
5	
1	
4	
2	
0	
3	
3	
3	
4	
2	
4	
2	
2	
1	
5	
5	
8	
8	
3	
4	
2	
1	
2	
1	
4	
0	
2	
1	
2	
5	
4	
3	
3	
2	
3	
1	
3	
4	
2	
4	
3	
2	
2	
5	
0	
1	
2	
3	
3	
6	
1	
4	
1	
1	
2	
3	
3	
1	
3	
4	
3	
1	
5	
3	
0	
4	
4	
4	
2	
4	
6	
3	
4	
0	
2	
6	
2	
8	
4	
5	
0	
6	
1	
3	
1	
6	
0	
3	
4	
4	
1	
3	
0	
0	
2	
4	
2	
4	
5	
4	
4	
3	
2	
1	
1	
2	
1	
0	
6	
1	
6	
2	
0	
2	
2	
3	
0	
4	
6	
3	
5	
5	
1	
3	
5	
3	
2	
1	
5	
3	
2	
6	
2	
2	
0	
6	
7	
3	
2	
3	
1	
2	
2	
5	
3	
1	
0	
1	
4	
0	
3	
3	
0	
0	
4	
4	
1	
3	
2	
1	
2	
2	
3	
1	
2	
2	
2	
4	
5	
1	
4	
3	
1	
4	
5	
1	
4	
1	
2	
5	
0	
5	
4	
3	
2	
3	
4	
2	
1	
3	
2	
2	
3	
0	
6	
0	
1	
2	
1	
3	
4	
2	
4	
1	
0	
4	
3	
4	
5	
3	
4	
4	
3	
4	
2	
1	
3	
1	
4	
5	
1	
5	
4	
2	
2	
5	
6	
2	
5	
3	
4	
5	
3	
2	
3	
2	
2	
2	
5	
2	
6	
2	
3	
2	
2	
6	
4	
1	
0	
6	
5	
6	
1	
8	
6	
1	
2	
2	
3	
4	
4	
4	
5	
1	
4	
3	
3	
1	
6	
2	
1	
5	
2	
2	
1	
5	
4	
2	
4	
5	
3	
3	
1	
4	
3	
4	
6	
1	
5	
0	
1	
1	
2	
0	
3	
3	
5	
4	
2	
4	
1	
4	
4	
3	
2	
6	
4	
4	
2	
0	
4	
1	
2	
1	
1	
3	
2	
2	
4	
4	
3	
4	
5	
4	
2	
1	
5	
3	
4	
5	
4	
2	
0	
1	
1	
1	
4	
2	
4	
4	
3	
1	
4	
0	
1	
1	
2	
2	
1	
4	
4	
4	
6	
4	
2	
1	
1	
1	
4	
3	
3	
1	
4	
2	
3	
1	
1	
4	
4	
2	
4	
4	
4	
1	
7	
2	
0	
2	
1	
1	
3	
2	
2	
1	
4	
0	
0	
3	
2	
3	
5	
1	
1	
2	
2	
5	
4	
1	
6	
2	
3	
4	
2	
2	
1	
3	
0	
3	
5	
2	
3	
4	
2	
3	
3	
2	
0	
3	
3	
1	
5	
3	
4	
4	
0	
5	
4	
3	
2	
2	
4	
3	
4	
0	
2	
3	
3	
2	
3	
1	
3	
1	
2	
2	
2	
4	
4	
1	
0	
1	
1	
0	
2	
2	
1	
4	
0	
2	
2	
1	
5	
2	
5	
2	
1	
5	
4	
1	
2	
1	
3	
0	
1	
1	
1	
3	
3	
1	
5	
5	
5	
4	
4	
3	
1	
5	
1	
3	
2	
0	
2	
1	
3	
2	
3	
0	
1	
2	
0	
1	
4	
2	
2	
5	
4	
2	
1	
2	
3	
3	
0	
2	
4	
0	
2	
6	
2	
3	
3	
5	
3	
2	
2	
1	
0	
4	
1	
5	
5	
0	
3	
1	
2	
2	
4	
3	
3	
3	
2	
2	
1	
3	
6	
2	
3	
4	
4	
3	
3	
1	
1	
4	
5	
0	
2	
2	
3	
3	
4	
4	
4	
3	
3	
1	
3	
5	
2	
4	
3	
1	
3	
2	
2	
3	
7	
3	
3	
7	
2	
4	
4	
2	
3	
1	
0	
3	
5	
5	
3	
3	
4	
10	
2	
3	
2	
1	
3	
2	
2	
2	
1	
0	
4	
1	
3	
4	
3	
5	
2	
4	
0	
0	
4	
1	
1	
1	
1	
2	
3	
5	
2	
2	
2	
0	
1	
1	
2	
2	
3	
5	
2	
1	
5	
3	
2	
2	
4	
2	
4	
5	
3	
3	
1	
1	
2	
4	
3	
6	
3	
5	
2	
0	
3	
2	
2	
4	
3	
3	
2	
2	
1	
1	
3	
4	
2	
4	
2	
0	
2	
1	
2	
1	
3	
1	
2	
2	
4	
3	
4	
1	
4	
0	
1	
2	
2	
6	
2	
1	
3	
2	
4	
1	
2	
1	
1	
4	
4	
2	
1	
8	
5	
7	
1	
5	
1	
0	
2	
4	
2	
3	
0	
7	
4	
4	
3	
4	
0	
4	
2	
4	
2	
1	
3	
0	
3	
3	
4	
3	
1	
3	
2	
2	
4	
3	
0	
5	
4	
4	
7	
1	
6	
0	
3	
4	
2	
1	
4	
2	
1	
4	
2	
2	
2	
1	
5	
3	
1	
3	
3	
7	
2	
2	
1	
0	
1	
3	
2	
3	
2	
1	
1	
4	
3	
2	
4	
3	
1	
4	
2	
0	
3	
6	
2	
3	
4	
3	
3	
1	
3	
3	
0	
6	
7	
4	
3	
3	
6	
4	
0	
1	
3	
4	
5	
1	
2	
2	
5	
4	
1	
2	
3	
1	
1	
2	
2	
0	
3	
3	
1	
3	
2	
0	
2	
3	
2	
2	
9	
0	
3	
2	
2	
2	
0	
2	
3	
3	
1	
4	
3	
2	
2	
3	
3	
3	
6	
3	
1	
3	
5	
3	
3	
1	
2	
2	
0	
3	
2	
2	
6	
5	
4	
1	
5	
0	
1	
4	
2	
3	
5	
3	
2	
1	
3	
1	
1	
1	
2	
2	
2	
4	
2	
1	
7	
3	
5	
4	
0	
5	
2	
6	
3	
2	
3	
0	
2	
2	
1	
1	
2	
0	
2	
2	
5	
2	
2	
3	
4	
2	
5	
0	
5	
7	
6	
2	
6	
3	
2	
0	
3	
4	
2	
1	
2	
1	
2	
3	
3	
2	
3	
4	
2	
1	
0	
4	
6	
1	
5	
3	
4	
4	
4	
3	
2	
3	
1	
3	
2	
2	
3	
2	
3	
1	
2	
6	
4	
3	
2	
6	
3	
5	
3	
6	
2	
6	
1	
2	
2	
5	
3	
4	
2	
0	
0	
6	
0	
4	
2	
3	
3	
0	
1	
0	
1	
0	
2	
2	
3	
2	
3	
1	
5	
1	
1	
4	
4	
2	
4	
3	
1	
6	
1	
5	
3	
7	
2	
2	
3	
0	
1	
5	
0	
2	
4	
2	
3	
2	
2	
6	
2	
0	
1	
4	
2	
4	
0	
5	
6	
2	
2	
5	
2	
5	
5	
2	
1	
2	
2	
3	
1	
1	
3	
5	
1	
0	
2	
2	
5	
4	
1	
4	
3	
1	
5	
3	
2	
0	
0	
4	
2	
1	
4	
2	
1	
5	
4	
4	
2	
3	
2	
3	
2	
2	
0	
3	
1	
6	
4	
1	
3	
4	
2	
2	
1	
5	
3	
3	
1	
2	
2	
2	
4	
3	
5	
2	
4	
1	
3	
2	
2	
2	
1	
1	
5	
4	
0	
2	
1	
3	
3	
3	
2	
5	
5	
1	
1	
3	
5	
4	
3	
1	
4	
3	
2	
2	
0	
4	
5	
6	
0	
1	
3	
2	
1	
2	
1	
4	
4	
3	
1	
5	
4	
1	
3	
1	
3	
2	
8	
3	
2	
2	
3	
1	
1	
4	
1	
1	
1	
1	
4	
0	
4	
3	
2	
3	
2	
2	
3	
4	
1	
4	
3	
5	
5	
5	
3	
2	
0	
4	
3	
2	
3	
1	
3	
1	
1	
1	
3	
4	
4	
2	
3	
3	
2	
6	
3	
3	
1	
2	
0	
6	
2	
3	
4	
3	
2	
2	
1	
5	
4	
3	
2	
3	
1	
1	
1	
2	
1	
4	
4	
2	
4	
1	
3	
1	
3	
2	
4	
4	
1	
1	
2	
3	
5	
4	
2	
4	
1	
2	
2	
3	
0	
3	
4	
0	
2	
3	
5	
4	
3	
1	
3	
2	
2	
3	
1	
3	
2	
2	
1	
2	
4	
3	
7	
5	
0	
3	
4	
6	
3	
3	
0	
2	
1	
5	
1	
1	
0	
4	
6	
1	
1	
2	
3	
1	
3	
4	
0	
1	
1	
6	
3	
2	
1	
1	
2	
3	
1	
2	
3	
0	
1	
2	
5	
2	
1	
1	
2	
1	
5	
4	
3	
0	
0	
4	
2	
3	
4	
3	
1	
0	
0	
0	
0	
0	
0	
0	
0	
0	
0	
0	
0	
0	
0	
0	
0	
0	
0	
0	
0	
0	
0	
0	
0	
0	
0	
0	
0	
0	
0	
0	
0	
0	
