#PicoHarp 300  Histogram Data			02/27/2023 03:20:39 PM
#channels per curve
7813
#display curve no.
0	
#memory block no.
0	
#ns/channel
0.1280	
#counts
0	
4	
1	
0	
0	
2	
2	
3	
1	
1	
4	
2	
1	
0	
0	
2	
3	
4	
1	
2	
1	
3	
1	
2	
3	
3	
1	
2	
3	
4	
1	
2	
1	
3	
4	
3	
5	
0	
1	
4	
5	
1	
0	
3	
3	
2	
1	
2	
2	
1	
3	
2	
1	
3	
2	
3	
3	
2	
0	
0	
2	
3	
1	
3	
0	
7	
3	
2	
1	
1	
1	
2	
1	
2	
0	
2	
2	
4	
5	
3	
0	
2	
2	
6	
2	
1	
0	
2	
3	
0	
0	
4	
3	
0	
3	
3	
2	
3	
3	
2	
5	
2	
2	
4	
3	
3	
3	
5	
2	
4	
2	
2	
0	
3	
0	
0	
4	
4	
2	
0	
1	
3	
3	
1	
0	
1	
3	
4	
2	
1	
2	
1	
1	
2	
2	
4	
3	
3	
1	
1	
4	
3	
2	
2	
2	
2	
1	
2	
2	
0	
1	
1	
0	
0	
2	
1	
1	
4	
0	
3	
0	
1	
3	
1	
3	
1	
1	
6	
1	
4	
2	
1	
2	
1	
3	
3	
0	
1	
1	
1	
2	
3	
4	
4	
2	
3	
3	
3	
1	
1	
1	
4	
3	
3	
1	
0	
1	
2	
0	
1	
1	
3	
1	
4	
1	
8	
1	
1	
3	
0	
3	
2	
3	
1	
2	
1	
2	
0	
1	
1	
1	
1	
2	
2	
0	
1	
4	
5	
1	
0	
5	
2	
2	
5	
3	
1	
0	
4	
2	
2	
1	
8	
15	
10	
29	
43	
96	
119	
148	
195	
178	
216	
235	
242	
256	
264	
248	
257	
246	
235	
221	
222	
227	
273	
247	
254	
251	
231	
221	
214	
239	
201	
224	
215	
247	
216	
196	
229	
211	
220	
197	
204	
216	
209	
221	
210	
178	
203	
216	
217	
198	
202	
207	
223	
198	
183	
218	
214	
182	
215	
195	
179	
202	
196	
213	
197	
184	
184	
175	
195	
200	
197	
176	
159	
188	
181	
171	
193	
165	
145	
166	
203	
173	
161	
176	
183	
178	
177	
164	
169	
175	
196	
169	
174	
151	
215	
149	
194	
182	
164	
168	
179	
142	
164	
156	
180	
164	
150	
147	
151	
181	
168	
153	
170	
166	
163	
157	
162	
157	
143	
153	
169	
154	
186	
154	
156	
161	
168	
153	
156	
152	
141	
151	
164	
168	
172	
178	
163	
156	
172	
160	
136	
172	
148	
160	
128	
143	
147	
134	
159	
149	
156	
144	
148	
151	
149	
145	
140	
125	
131	
149	
148	
160	
140	
143	
126	
167	
142	
152	
164	
139	
139	
137	
135	
137	
166	
125	
150	
168	
157	
139	
124	
150	
157	
128	
143	
130	
145	
143	
129	
149	
117	
141	
136	
137	
143	
146	
134	
142	
144	
138	
136	
139	
124	
137	
123	
167	
143	
122	
142	
131	
146	
136	
132	
137	
122	
148	
121	
128	
128	
115	
119	
144	
119	
129	
139	
133	
142	
139	
129	
120	
135	
111	
133	
97	
111	
129	
139	
127	
129	
133	
127	
134	
135	
133	
125	
124	
106	
148	
141	
119	
137	
139	
115	
110	
118	
128	
101	
111	
131	
119	
113	
120	
125	
121	
115	
120	
124	
107	
101	
105	
118	
111	
115	
122	
108	
116	
109	
112	
113	
106	
111	
133	
110	
126	
121	
110	
117	
115	
102	
113	
104	
108	
115	
115	
125	
107	
114	
116	
115	
112	
104	
113	
106	
108	
99	
107	
116	
98	
96	
108	
110	
111	
102	
105	
103	
100	
106	
103	
103	
113	
97	
106	
116	
97	
107	
104	
120	
107	
97	
131	
102	
121	
112	
103	
114	
85	
101	
103	
103	
101	
132	
98	
108	
105	
83	
99	
100	
108	
101	
92	
95	
96	
85	
100	
120	
77	
97	
90	
119	
105	
106	
99	
89	
102	
100	
107	
100	
95	
98	
110	
111	
121	
109	
91	
103	
106	
107	
92	
105	
96	
102	
113	
99	
107	
90	
106	
92	
97	
104	
99	
110	
94	
93	
93	
104	
96	
97	
107	
101	
90	
93	
93	
99	
100	
104	
77	
99	
89	
87	
97	
100	
101	
83	
98	
92	
95	
102	
84	
93	
89	
113	
106	
96	
86	
99	
89	
96	
86	
86	
89	
74	
84	
108	
97	
89	
94	
107	
98	
103	
104	
103	
109	
78	
107	
81	
89	
96	
106	
92	
90	
100	
94	
88	
94	
60	
77	
83	
92	
84	
100	
67	
82	
78	
97	
102	
95	
84	
79	
82	
59	
92	
93	
72	
76	
88	
114	
88	
91	
82	
70	
83	
98	
90	
83	
74	
88	
96	
86	
106	
95	
98	
76	
74	
76	
80	
91	
88	
91	
81	
74	
67	
88	
70	
84	
83	
83	
71	
72	
81	
83	
86	
67	
75	
67	
85	
59	
73	
71	
97	
84	
91	
72	
83	
79	
93	
89	
64	
83	
86	
70	
78	
81	
76	
90	
54	
83	
73	
71	
86	
83	
61	
87	
78	
83	
85	
61	
68	
93	
68	
79	
98	
94	
81	
55	
73	
71	
73	
73	
77	
75	
65	
77	
77	
79	
79	
64	
74	
81	
82	
81	
63	
78	
61	
72	
96	
56	
65	
58	
72	
71	
66	
69	
62	
69	
71	
78	
70	
66	
78	
63	
73	
70	
61	
78	
70	
73	
64	
70	
69	
67	
59	
74	
64	
85	
73	
63	
68	
87	
72	
78	
62	
62	
65	
71	
72	
91	
66	
70	
79	
57	
63	
58	
72	
63	
70	
83	
79	
81	
62	
78	
66	
73	
51	
72	
64	
62	
71	
62	
63	
66	
88	
79	
62	
59	
66	
71	
59	
62	
59	
68	
59	
67	
72	
71	
74	
66	
52	
89	
63	
71	
61	
58	
62	
56	
65	
78	
59	
64	
71	
72	
66	
69	
65	
64	
54	
72	
46	
63	
64	
52	
60	
68	
59	
58	
63	
84	
75	
65	
56	
75	
64	
50	
43	
58	
53	
54	
40	
56	
50	
67	
70	
50	
53	
64	
68	
62	
58	
70	
46	
69	
53	
55	
64	
42	
54	
54	
65	
65	
52	
73	
68	
65	
62	
67	
62	
67	
56	
60	
64	
54	
58	
50	
52	
65	
65	
65	
57	
61	
55	
66	
40	
63	
51	
55	
55	
53	
56	
48	
56	
53	
60	
62	
51	
65	
56	
49	
61	
41	
50	
67	
59	
68	
59	
49	
65	
57	
53	
48	
54	
43	
51	
60	
44	
72	
57	
57	
55	
60	
49	
52	
58	
62	
61	
56	
57	
56	
51	
55	
58	
56	
57	
53	
59	
53	
58	
63	
58	
59	
62	
55	
69	
56	
61	
58	
68	
58	
62	
50	
55	
48	
38	
55	
58	
71	
48	
44	
53	
63	
51	
48	
61	
51	
40	
50	
55	
47	
44	
52	
62	
55	
56	
65	
52	
71	
42	
53	
42	
59	
52	
40	
55	
59	
54	
68	
60	
48	
47	
42	
44	
67	
61	
53	
53	
70	
42	
54	
50	
63	
50	
58	
44	
54	
48	
56	
57	
52	
63	
52	
55	
49	
63	
57	
50	
67	
54	
50	
51	
40	
49	
58	
39	
47	
56	
49	
39	
47	
55	
47	
50	
61	
62	
57	
44	
51	
50	
58	
62	
61	
42	
49	
53	
51	
37	
39	
40	
43	
42	
71	
59	
67	
32	
43	
47	
53	
46	
42	
48	
53	
55	
49	
47	
40	
49	
47	
49	
40	
50	
48	
52	
36	
33	
52	
41	
54	
35	
47	
42	
48	
43	
53	
50	
57	
47	
42	
36	
36	
46	
38	
44	
41	
48	
46	
47	
61	
38	
46	
55	
51	
44	
51	
59	
54	
48	
30	
40	
41	
45	
50	
49	
54	
53	
43	
53	
50	
45	
45	
45	
46	
39	
36	
45	
39	
47	
46	
37	
37	
37	
55	
42	
54	
37	
46	
45	
43	
46	
43	
44	
47	
36	
47	
43	
45	
48	
44	
43	
39	
38	
41	
45	
44	
47	
40	
46	
43	
39	
41	
41	
38	
41	
37	
42	
55	
49	
44	
27	
46	
43	
57	
33	
48	
38	
43	
51	
30	
41	
40	
32	
46	
47	
49	
38	
42	
41	
48	
34	
25	
29	
35	
30	
40	
44	
35	
37	
49	
39	
41	
41	
31	
37	
41	
43	
46	
48	
29	
53	
34	
52	
35	
42	
38	
36	
31	
28	
34	
40	
43	
32	
43	
30	
37	
33	
35	
46	
46	
47	
35	
40	
37	
34	
43	
38	
42	
45	
35	
50	
49	
29	
39	
42	
31	
39	
35	
41	
38	
45	
49	
39	
26	
35	
42	
38	
42	
44	
48	
37	
37	
32	
37	
36	
35	
39	
43	
33	
33	
43	
39	
44	
50	
38	
37	
33	
39	
45	
30	
46	
41	
36	
38	
50	
43	
28	
25	
27	
28	
40	
34	
33	
34	
41	
44	
38	
43	
42	
34	
41	
39	
40	
33	
31	
37	
41	
33	
28	
44	
45	
42	
24	
36	
47	
48	
35	
43	
33	
48	
42	
30	
38	
33	
30	
33	
37	
32	
39	
43	
35	
40	
40	
26	
40	
35	
36	
31	
28	
41	
33	
41	
38	
25	
47	
39	
30	
35	
36	
35	
30	
43	
34	
38	
46	
37	
32	
34	
36	
34	
34	
35	
40	
39	
36	
35	
27	
31	
26	
28	
36	
29	
43	
35	
27	
32	
25	
42	
38	
34	
29	
42	
32	
39	
37	
32	
27	
36	
38	
27	
34	
44	
35	
24	
36	
32	
35	
36	
48	
35	
30	
27	
37	
33	
28	
30	
36	
30	
44	
38	
31	
39	
40	
31	
29	
23	
22	
34	
34	
36	
31	
29	
35	
26	
39	
25	
37	
29	
28	
27	
37	
33	
33	
37	
24	
26	
30	
32	
34	
35	
21	
31	
27	
37	
22	
26	
37	
24	
30	
36	
37	
27	
29	
31	
32	
32	
36	
29	
24	
31	
32	
33	
34	
27	
24	
26	
30	
38	
26	
28	
22	
38	
34	
30	
20	
29	
33	
24	
24	
27	
27	
34	
32	
24	
25	
28	
17	
26	
29	
33	
30	
33	
26	
31	
32	
30	
20	
26	
35	
35	
29	
39	
28	
32	
36	
29	
28	
27	
20	
25	
23	
30	
28	
35	
28	
42	
30	
31	
25	
31	
32	
32	
35	
36	
23	
35	
28	
25	
31	
33	
44	
22	
23	
31	
27	
34	
25	
29	
24	
33	
21	
24	
26	
23	
28	
25	
33	
31	
22	
34	
23	
23	
23	
31	
27	
26	
18	
28	
34	
28	
33	
35	
25	
31	
24	
38	
20	
25	
30	
36	
28	
33	
25	
27	
27	
26	
39	
29	
35	
27	
30	
34	
27	
28	
26	
25	
33	
20	
18	
23	
30	
26	
15	
29	
27	
27	
29	
25	
34	
29	
28	
25	
32	
30	
35	
27	
29	
27	
20	
24	
34	
31	
27	
23	
39	
30	
29	
37	
21	
39	
32	
31	
26	
23	
24	
29	
27	
25	
20	
26	
29	
27	
26	
26	
18	
27	
17	
27	
31	
24	
31	
26	
27	
24	
27	
23	
23	
27	
24	
27	
28	
26	
26	
23	
26	
25	
28	
21	
27	
25	
26	
26	
25	
31	
31	
27	
18	
19	
17	
29	
30	
24	
23	
26	
25	
36	
24	
29	
28	
25	
34	
22	
32	
27	
16	
37	
18	
22	
25	
26	
29	
20	
19	
32	
25	
23	
22	
29	
23	
24	
27	
27	
24	
29	
28	
27	
17	
31	
19	
23	
27	
26	
19	
23	
30	
15	
24	
28	
28	
27	
29	
29	
30	
19	
35	
29	
23	
17	
27	
26	
26	
28	
20	
24	
24	
26	
29	
22	
34	
30	
30	
20	
17	
29	
21	
28	
23	
27	
19	
18	
25	
19	
26	
25	
20	
17	
22	
25	
19	
21	
20	
21	
31	
25	
19	
29	
22	
36	
30	
26	
23	
19	
16	
36	
21	
15	
20	
23	
33	
28	
22	
23	
21	
18	
23	
29	
20	
28	
23	
17	
12	
27	
25	
23	
21	
29	
20	
23	
26	
25	
20	
30	
26	
13	
24	
20	
23	
23	
10	
24	
27	
25	
22	
19	
18	
23	
24	
13	
28	
31	
27	
10	
18	
28	
20	
24	
21	
19	
19	
20	
21	
23	
19	
15	
19	
22	
22	
21	
13	
19	
20	
17	
22	
14	
22	
18	
12	
22	
27	
21	
24	
20	
19	
17	
20	
19	
19	
24	
21	
18	
28	
20	
21	
19	
31	
26	
16	
20	
23	
21	
16	
25	
21	
27	
20	
28	
18	
18	
26	
21	
26	
12	
25	
17	
14	
18	
20	
12	
19	
23	
19	
20	
21	
24	
26	
15	
25	
19	
24	
18	
26	
29	
22	
24	
24	
16	
22	
13	
22	
29	
23	
21	
20	
22	
18	
20	
21	
17	
22	
22	
22	
21	
31	
18	
19	
23	
23	
18	
23	
13	
15	
14	
15	
11	
21	
24	
16	
23	
20	
21	
20	
15	
10	
15	
20	
20	
16	
20	
17	
15	
18	
28	
18	
15	
22	
13	
18	
22	
23	
22	
21	
18	
14	
16	
24	
12	
24	
15	
21	
22	
16	
21	
12	
17	
14	
17	
15	
25	
23	
17	
14	
16	
18	
22	
24	
14	
15	
13	
15	
14	
23	
17	
12	
22	
11	
22	
22	
12	
21	
11	
25	
24	
19	
22	
22	
10	
9	
11	
18	
19	
21	
16	
19	
30	
18	
21	
18	
16	
18	
17	
20	
25	
14	
18	
20	
21	
15	
16	
13	
22	
19	
19	
17	
23	
18	
15	
15	
25	
31	
24	
16	
20	
19	
25	
16	
15	
17	
18	
20	
20	
17	
16	
24	
12	
12	
18	
16	
11	
16	
18	
29	
13	
19	
18	
15	
13	
15	
21	
16	
27	
23	
22	
19	
13	
13	
18	
21	
25	
11	
21	
19	
22	
15	
17	
11	
21	
20	
19	
16	
19	
24	
21	
9	
24	
13	
18	
11	
15	
17	
12	
18	
24	
18	
15	
20	
19	
13	
14	
14	
16	
15	
14	
15	
22	
15	
18	
22	
22	
17	
9	
16	
18	
21	
16	
20	
18	
20	
25	
15	
20	
10	
11	
18	
15	
22	
29	
18	
15	
14	
21	
24	
15	
18	
14	
19	
18	
15	
16	
16	
19	
15	
16	
16	
15	
7	
26	
23	
16	
12	
9	
13	
22	
13	
24	
16	
23	
21	
10	
18	
20	
18	
10	
19	
18	
12	
22	
13	
24	
12	
13	
21	
14	
17	
22	
13	
12	
17	
12	
18	
14	
15	
16	
16	
18	
17	
22	
15	
13	
19	
18	
18	
15	
22	
19	
17	
21	
20	
13	
16	
13	
23	
15	
13	
12	
20	
10	
13	
16	
12	
17	
11	
22	
12	
17	
17	
16	
19	
14	
13	
14	
18	
22	
13	
19	
20	
11	
24	
17	
18	
16	
10	
16	
14	
16	
24	
11	
18	
19	
14	
18	
20	
16	
22	
15	
10	
13	
13	
19	
15	
7	
13	
20	
10	
18	
20	
13	
11	
13	
14	
12	
12	
15	
12	
11	
12	
17	
14	
15	
11	
14	
10	
10	
16	
19	
12	
12	
10	
18	
13	
8	
15	
17	
10	
19	
15	
14	
10	
14	
12	
15	
14	
16	
18	
17	
20	
19	
11	
15	
13	
17	
12	
16	
20	
20	
17	
20	
11	
8	
11	
14	
11	
12	
17	
15	
17	
28	
7	
13	
14	
6	
15	
19	
12	
14	
13	
18	
17	
17	
12	
18	
18	
16	
22	
11	
20	
15	
16	
11	
19	
19	
17	
7	
25	
16	
18	
19	
19	
17	
14	
16	
15	
16	
10	
15	
14	
13	
12	
14	
18	
14	
11	
21	
21	
21	
13	
14	
15	
18	
16	
11	
13	
9	
8	
6	
7	
20	
13	
13	
15	
12	
15	
15	
14	
14	
16	
14	
17	
11	
15	
10	
13	
16	
19	
15	
15	
17	
11	
11	
14	
15	
14	
15	
16	
13	
15	
11	
14	
17	
16	
14	
14	
12	
9	
17	
15	
8	
19	
9	
15	
14	
8	
25	
16	
11	
11	
10	
14	
16	
15	
20	
8	
13	
12	
11	
10	
14	
13	
13	
16	
7	
15	
16	
15	
8	
10	
15	
14	
11	
18	
8	
6	
12	
17	
20	
12	
14	
11	
10	
11	
13	
11	
14	
19	
16	
13	
13	
10	
12	
9	
11	
14	
7	
18	
8	
17	
3	
16	
8	
11	
15	
15	
7	
16	
13	
12	
14	
14	
16	
14	
14	
14	
13	
17	
17	
14	
13	
9	
20	
14	
5	
17	
16	
8	
13	
11	
14	
9	
17	
17	
13	
10	
12	
18	
15	
13	
12	
12	
15	
12	
14	
11	
10	
11	
14	
12	
13	
17	
18	
12	
13	
16	
9	
13	
13	
13	
15	
10	
12	
21	
11	
11	
14	
17	
12	
10	
15	
17	
8	
23	
14	
10	
13	
8	
14	
10	
11	
7	
10	
15	
11	
15	
5	
8	
10	
13	
11	
13	
14	
12	
9	
13	
8	
11	
9	
13	
14	
17	
16	
9	
18	
11	
19	
17	
13	
15	
4	
8	
8	
13	
12	
14	
15	
11	
11	
10	
13	
12	
9	
11	
12	
14	
13	
9	
11	
9	
8	
11	
11	
16	
12	
11	
9	
15	
8	
15	
13	
8	
14	
11	
17	
15	
18	
14	
17	
17	
17	
11	
9	
9	
8	
16	
12	
7	
10	
15	
6	
5	
16	
12	
12	
23	
10	
7	
15	
7	
12	
11	
6	
11	
11	
7	
13	
15	
13	
15	
9	
16	
11	
8	
12	
16	
11	
11	
14	
12	
10	
16	
15	
12	
8	
9	
8	
15	
13	
16	
11	
11	
11	
6	
8	
9	
11	
11	
8	
11	
15	
12	
7	
15	
5	
13	
14	
8	
13	
10	
16	
12	
5	
12	
13	
6	
7	
13	
11	
14	
13	
15	
13	
13	
12	
14	
9	
11	
14	
16	
15	
3	
8	
13	
17	
19	
13	
17	
9	
13	
12	
13	
10	
6	
9	
8	
11	
9	
8	
15	
13	
11	
12	
15	
8	
9	
15	
6	
9	
10	
13	
10	
9	
10	
10	
15	
12	
10	
16	
9	
9	
9	
11	
15	
6	
11	
12	
4	
12	
15	
18	
10	
12	
14	
6	
10	
16	
14	
16	
13	
12	
11	
12	
13	
7	
11	
12	
10	
11	
11	
7	
6	
7	
15	
15	
14	
9	
17	
10	
9	
10	
12	
10	
11	
11	
14	
7	
7	
13	
14	
11	
12	
8	
7	
12	
7	
12	
13	
6	
11	
14	
6	
11	
10	
4	
11	
8	
15	
11	
10	
7	
11	
7	
8	
7	
14	
7	
5	
9	
14	
4	
12	
17	
7	
10	
17	
10	
11	
11	
10	
7	
9	
10	
10	
9	
14	
12	
12	
2	
10	
10	
11	
12	
6	
9	
13	
5	
7	
9	
12	
9	
7	
12	
11	
9	
13	
7	
9	
12	
13	
11	
8	
4	
8	
15	
9	
7	
7	
14	
12	
11	
7	
14	
11	
10	
15	
9	
9	
10	
10	
7	
6	
7	
9	
9	
14	
11	
5	
9	
5	
9	
12	
8	
11	
12	
9	
7	
9	
19	
12	
10	
7	
11	
9	
17	
8	
9	
8	
11	
6	
8	
7	
8	
9	
6	
10	
8	
4	
8	
15	
14	
12	
10	
11	
11	
5	
7	
8	
7	
8	
9	
10	
9	
5	
13	
5	
10	
9	
6	
7	
11	
9	
15	
10	
10	
9	
8	
8	
10	
13	
8	
10	
12	
7	
8	
6	
5	
15	
9	
8	
8	
9	
9	
10	
8	
8	
8	
7	
13	
8	
5	
9	
8	
11	
5	
6	
4	
20	
3	
6	
6	
7	
11	
9	
12	
13	
11	
12	
8	
8	
8	
12	
4	
14	
5	
8	
8	
6	
13	
5	
10	
4	
10	
5	
7	
10	
6	
9	
10	
9	
5	
6	
11	
6	
10	
7	
8	
9	
6	
10	
4	
10	
7	
3	
9	
7	
8	
6	
9	
4	
13	
10	
6	
11	
9	
4	
10	
13	
13	
5	
10	
11	
7	
7	
5	
13	
8	
6	
7	
11	
12	
6	
7	
3	
14	
7	
11	
13	
5	
12	
11	
7	
3	
13	
9	
7	
6	
16	
10	
6	
11	
8	
6	
7	
9	
9	
7	
8	
5	
9	
6	
13	
9	
7	
11	
11	
1	
9	
12	
18	
10	
16	
9	
13	
6	
6	
10	
13	
14	
9	
10	
6	
10	
10	
8	
10	
12	
15	
9	
10	
7	
4	
4	
11	
10	
13	
10	
5	
11	
6	
11	
10	
12	
5	
16	
8	
8	
8	
6	
7	
5	
7	
5	
8	
11	
9	
8	
11	
10	
5	
9	
15	
12	
12	
11	
9	
4	
6	
11	
7	
10	
11	
5	
10	
11	
7	
3	
7	
9	
10	
8	
7	
4	
6	
3	
6	
10	
10	
8	
9	
11	
11	
9	
12	
10	
3	
5	
10	
7	
11	
5	
9	
7	
9	
8	
8	
4	
7	
12	
6	
6	
10	
10	
11	
10	
8	
9	
7	
4	
9	
13	
6	
14	
5	
9	
4	
7	
8	
12	
3	
9	
6	
7	
7	
7	
4	
9	
8	
13	
10	
7	
6	
11	
10	
4	
10	
10	
6	
7	
6	
5	
9	
12	
12	
9	
2	
10	
10	
8	
6	
6	
4	
14	
5	
9	
7	
6	
8	
8	
11	
10	
10	
6	
7	
4	
6	
8	
9	
10	
8	
9	
8	
10	
4	
9	
9	
12	
4	
10	
7	
5	
7	
8	
3	
11	
8	
4	
9	
12	
7	
7	
13	
9	
9	
9	
9	
10	
3	
6	
5	
9	
11	
6	
15	
8	
8	
10	
7	
7	
10	
12	
11	
5	
12	
12	
12	
11	
7	
8	
13	
8	
4	
12	
5	
7	
6	
7	
7	
10	
7	
7	
11	
10	
5	
2	
5	
4	
7	
3	
4	
8	
5	
11	
9	
8	
9	
6	
8	
13	
3	
6	
6	
11	
7	
7	
7	
12	
10	
2	
15	
8	
9	
8	
7	
9	
7	
12	
3	
10	
7	
13	
8	
6	
10	
6	
7	
8	
7	
7	
8	
5	
5	
11	
5	
5	
7	
8	
6	
7	
8	
10	
7	
6	
8	
8	
8	
8	
4	
10	
5	
12	
8	
8	
3	
9	
5	
10	
12	
2	
6	
6	
12	
2	
10	
8	
7	
7	
5	
7	
11	
2	
7	
11	
10	
8	
9	
10	
11	
4	
10	
7	
9	
6	
4	
7	
11	
7	
6	
6	
7	
6	
7	
3	
12	
11	
11	
5	
6	
9	
11	
9	
6	
8	
4	
7	
15	
9	
5	
7	
9	
5	
13	
4	
7	
4	
4	
7	
5	
12	
8	
6	
3	
5	
10	
2	
4	
10	
6	
14	
3	
4	
9	
4	
5	
8	
10	
5	
2	
6	
6	
7	
6	
8	
6	
4	
3	
6	
4	
6	
3	
9	
14	
10	
7	
6	
12	
7	
8	
10	
8	
8	
7	
6	
6	
7	
8	
10	
7	
11	
4	
9	
5	
7	
5	
7	
4	
6	
6	
2	
4	
5	
13	
6	
6	
10	
10	
6	
7	
6	
10	
10	
8	
6	
3	
5	
4	
5	
6	
8	
6	
5	
10	
7	
7	
12	
4	
10	
10	
9	
8	
9	
10	
6	
6	
5	
8	
9	
6	
4	
7	
6	
4	
7	
6	
12	
4	
5	
7	
6	
6	
11	
6	
10	
3	
5	
13	
6	
7	
9	
8	
8	
7	
7	
5	
6	
2	
3	
7	
7	
4	
5	
4	
9	
9	
6	
4	
8	
7	
7	
5	
11	
6	
12	
5	
6	
9	
7	
10	
7	
8	
8	
7	
4	
11	
3	
10	
10	
10	
10	
10	
7	
9	
10	
4	
5	
3	
9	
8	
3	
5	
2	
6	
6	
2	
8	
4	
5	
12	
12	
6	
3	
8	
8	
6	
6	
8	
6	
2	
8	
6	
5	
6	
4	
8	
7	
7	
7	
6	
6	
13	
9	
15	
5	
4	
3	
1	
6	
5	
9	
7	
11	
8	
8	
10	
1	
4	
7	
8	
2	
6	
12	
5	
6	
6	
4	
2	
7	
3	
5	
6	
3	
1	
8	
2	
4	
4	
9	
6	
3	
4	
6	
8	
4	
8	
10	
5	
5	
5	
5	
3	
10	
5	
6	
5	
6	
8	
3	
7	
6	
12	
1	
10	
8	
4	
4	
8	
5	
11	
4	
7	
2	
6	
6	
7	
5	
7	
2	
8	
6	
4	
6	
9	
4	
8	
5	
9	
7	
5	
5	
6	
7	
4	
6	
5	
3	
8	
12	
5	
3	
7	
9	
8	
7	
3	
6	
7	
5	
4	
5	
8	
10	
4	
5	
6	
4	
4	
6	
7	
12	
5	
3	
5	
7	
8	
8	
4	
7	
4	
6	
4	
6	
8	
6	
5	
5	
3	
7	
2	
7	
8	
7	
6	
5	
5	
9	
5	
6	
6	
8	
5	
9	
7	
8	
9	
6	
7	
8	
6	
5	
3	
6	
9	
10	
3	
8	
4	
9	
6	
14	
7	
8	
3	
8	
5	
6	
8	
4	
4	
6	
4	
6	
9	
5	
3	
7	
7	
7	
6	
3	
6	
4	
3	
5	
9	
7	
2	
7	
3	
7	
5	
8	
3	
12	
4	
8	
10	
5	
3	
9	
5	
6	
1	
3	
8	
9	
10	
3	
3	
8	
3	
5	
5	
2	
3	
4	
7	
4	
4	
7	
3	
9	
6	
4	
4	
5	
7	
6	
9	
5	
7	
8	
6	
9	
8	
3	
5	
3	
10	
3	
5	
2	
5	
6	
6	
4	
7	
5	
6	
2	
7	
8	
3	
5	
7	
6	
2	
5	
5	
10	
7	
12	
5	
5	
2	
3	
10	
3	
8	
7	
8	
1	
5	
5	
8	
2	
0	
6	
5	
4	
2	
5	
5	
8	
7	
2	
3	
6	
5	
8	
3	
6	
2	
3	
8	
4	
5	
10	
6	
4	
7	
7	
5	
4	
8	
6	
7	
6	
7	
5	
6	
5	
1	
8	
3	
6	
7	
7	
4	
9	
8	
8	
14	
7	
4	
3	
1	
4	
12	
7	
11	
8	
4	
6	
1	
2	
7	
5	
3	
6	
4	
9	
2	
5	
7	
5	
8	
5	
11	
1	
7	
7	
11	
7	
9	
4	
2	
4	
11	
4	
9	
11	
4	
7	
5	
6	
8	
4	
6	
5	
6	
4	
3	
5	
4	
3	
7	
7	
5	
6	
5	
4	
2	
5	
4	
7	
2	
4	
3	
3	
7	
7	
4	
6	
4	
4	
6	
7	
1	
2	
6	
9	
5	
5	
8	
4	
4	
3	
10	
2	
4	
5	
8	
7	
9	
1	
1	
4	
7	
5	
4	
3	
7	
5	
0	
9	
5	
7	
6	
2	
2	
5	
3	
5	
3	
2	
6	
7	
3	
8	
5	
6	
5	
4	
5	
5	
4	
3	
3	
6	
7	
2	
6	
3	
7	
9	
1	
3	
6	
4	
3	
7	
6	
10	
9	
4	
4	
8	
10	
1	
7	
10	
4	
5	
3	
5	
6	
1	
5	
6	
5	
7	
3	
6	
6	
2	
4	
5	
8	
3	
3	
5	
1	
5	
4	
5	
1	
6	
3	
11	
1	
8	
9	
2	
4	
6	
12	
4	
5	
6	
6	
6	
5	
9	
4	
4	
5	
2	
5	
3	
7	
5	
7	
7	
4	
3	
5	
4	
3	
3	
8	
4	
7	
3	
4	
2	
6	
4	
3	
6	
7	
4	
7	
3	
3	
2	
1	
5	
2	
6	
2	
5	
4	
1	
6	
6	
3	
7	
3	
3	
4	
6	
2	
4	
2	
8	
5	
4	
9	
5	
5	
5	
3	
6	
7	
4	
5	
8	
6	
4	
2	
5	
5	
4	
4	
5	
8	
6	
5	
2	
8	
4	
7	
4	
5	
1	
4	
3	
6	
4	
9	
3	
5	
6	
5	
5	
4	
9	
2	
5	
7	
3	
5	
2	
4	
3	
4	
4	
5	
4	
9	
4	
2	
5	
7	
4	
8	
4	
3	
6	
5	
5	
5	
4	
9	
6	
4	
6	
3	
6	
5	
5	
7	
5	
3	
2	
8	
8	
3	
6	
10	
5	
6	
4	
8	
3	
6	
6	
9	
1	
3	
6	
12	
1	
4	
6	
3	
9	
6	
3	
8	
5	
5	
8	
3	
4	
5	
5	
7	
1	
7	
4	
4	
8	
9	
5	
3	
9	
3	
5	
6	
3	
7	
2	
5	
8	
5	
5	
1	
3	
8	
4	
13	
1	
4	
1	
3	
4	
4	
8	
7	
8	
3	
4	
5	
1	
5	
5	
9	
4	
3	
4	
2	
3	
4	
5	
3	
5	
5	
7	
4	
6	
1	
8	
2	
4	
1	
9	
7	
7	
4	
5	
6	
5	
8	
1	
5	
4	
7	
1	
8	
3	
3	
5	
5	
5	
5	
8	
4	
4	
4	
1	
5	
1	
7	
4	
6	
6	
6	
5	
4	
5	
4	
3	
3	
5	
1	
3	
4	
4	
2	
3	
4	
6	
4	
5	
2	
5	
3	
9	
5	
3	
6	
4	
5	
2	
5	
4	
3	
6	
1	
3	
4	
7	
4	
7	
4	
8	
6	
8	
8	
7	
7	
5	
6	
6	
2	
5	
4	
5	
3	
5	
4	
6	
1	
7	
6	
3	
7	
5	
8	
5	
2	
6	
6	
2	
4	
5	
4	
5	
3	
6	
5	
6	
8	
4	
6	
5	
4	
5	
5	
6	
4	
4	
2	
4	
3	
3	
4	
2	
7	
7	
6	
5	
9	
1	
5	
3	
6	
4	
6	
1	
9	
4	
3	
5	
3	
5	
3	
5	
1	
4	
4	
2	
3	
5	
3	
3	
3	
6	
2	
5	
3	
2	
11	
9	
8	
4	
5	
3	
5	
3	
5	
1	
2	
1	
5	
7	
2	
4	
8	
5	
2	
2	
6	
5	
5	
5	
3	
4	
6	
4	
3	
5	
5	
4	
3	
7	
7	
5	
4	
2	
1	
10	
5	
1	
1	
8	
4	
5	
2	
3	
4	
4	
3	
1	
5	
2	
2	
4	
4	
2	
3	
4	
1	
4	
2	
1	
9	
6	
5	
6	
6	
2	
4	
5	
3	
4	
3	
9	
7	
7	
5	
7	
7	
3	
5	
9	
3	
5	
4	
6	
3	
2	
5	
5	
3	
6	
4	
3	
5	
3	
9	
6	
5	
6	
5	
11	
5	
8	
5	
3	
3	
5	
8	
5	
4	
1	
6	
5	
2	
7	
3	
4	
5	
3	
8	
9	
5	
3	
2	
2	
7	
4	
3	
1	
9	
6	
4	
3	
3	
8	
6	
3	
5	
5	
5	
4	
2	
2	
0	
3	
10	
3	
5	
7	
3	
1	
5	
4	
3	
5	
2	
9	
5	
2	
5	
7	
3	
3	
7	
2	
4	
2	
2	
7	
3	
0	
4	
7	
5	
4	
5	
2	
4	
2	
2	
2	
3	
5	
1	
2	
2	
1	
4	
1	
6	
4	
4	
4	
2	
1	
2	
4	
4	
6	
7	
9	
3	
5	
6	
5	
5	
7	
4	
13	
3	
4	
5	
3	
1	
2	
10	
5	
6	
6	
3	
4	
5	
4	
1	
4	
5	
1	
2	
2	
3	
2	
3	
5	
5	
2	
3	
4	
0	
6	
8	
3	
8	
8	
5	
4	
3	
6	
7	
4	
4	
6	
5	
1	
5	
3	
6	
2	
2	
2	
3	
4	
1	
7	
4	
5	
3	
4	
6	
2	
4	
1	
5	
2	
6	
5	
2	
6	
3	
6	
4	
10	
2	
2	
6	
4	
4	
6	
4	
9	
4	
5	
1	
7	
4	
4	
6	
3	
2	
3	
2	
6	
3	
3	
2	
5	
3	
9	
8	
12	
5	
5	
9	
5	
5	
8	
5	
7	
1	
4	
5	
7	
0	
2	
5	
5	
6	
3	
3	
5	
5	
5	
6	
1	
7	
3	
3	
2	
6	
3	
1	
5	
4	
3	
3	
5	
5	
4	
1	
5	
3	
4	
4	
7	
3	
3	
3	
6	
2	
3	
5	
4	
7	
4	
6	
5	
4	
5	
4	
5	
3	
3	
5	
5	
3	
3	
3	
2	
4	
5	
2	
3	
4	
2	
5	
6	
4	
8	
5	
5	
10	
3	
3	
8	
5	
4	
2	
3	
3	
1	
6	
6	
6	
3	
3	
3	
1	
3	
7	
5	
4	
5	
1	
5	
7	
1	
2	
7	
2	
6	
9	
3	
3	
4	
3	
6	
6	
7	
2	
2	
3	
3	
6	
4	
4	
2	
7	
7	
2	
3	
1	
6	
0	
4	
6	
2	
2	
3	
2	
2	
5	
4	
3	
4	
5	
9	
3	
4	
3	
3	
2	
7	
7	
3	
3	
4	
3	
1	
5	
1	
9	
4	
3	
6	
7	
5	
3	
2	
3	
5	
2	
2	
8	
4	
2	
1	
2	
4	
3	
9	
1	
9	
5	
1	
1	
4	
2	
4	
3	
1	
2	
7	
4	
2	
2	
6	
2	
6	
5	
5	
2	
5	
3	
3	
4	
2	
3	
4	
4	
4	
1	
5	
1	
3	
4	
3	
3	
3	
4	
6	
3	
6	
7	
5	
3	
1	
3	
4	
4	
5	
4	
3	
3	
3	
4	
4	
4	
3	
2	
6	
2	
3	
3	
3	
6	
5	
5	
0	
3	
5	
3	
4	
4	
8	
2	
6	
5	
1	
6	
4	
7	
1	
6	
2	
6	
3	
4	
3	
6	
3	
6	
5	
2	
2	
2	
3	
4	
2	
6	
5	
5	
5	
5	
3	
1	
8	
2	
8	
4	
3	
5	
3	
3	
2	
3	
2	
8	
5	
3	
1	
5	
5	
5	
4	
3	
2	
6	
1	
6	
2	
3	
2	
5	
2	
2	
2	
1	
6	
2	
4	
1	
3	
4	
0	
3	
5	
4	
6	
0	
3	
1	
2	
5	
1	
6	
3	
3	
2	
2	
5	
4	
2	
4	
5	
5	
6	
5	
3	
2	
4	
4	
3	
4	
3	
5	
3	
6	
4	
3	
1	
6	
3	
6	
7	
3	
2	
4	
4	
3	
4	
5	
3	
2	
3	
3	
6	
2	
7	
0	
4	
4	
3	
3	
6	
6	
5	
7	
2	
3	
5	
5	
3	
2	
5	
2	
2	
3	
2	
3	
0	
3	
1	
4	
1	
0	
2	
6	
2	
4	
4	
1	
3	
4	
12	
2	
4	
2	
5	
5	
7	
7	
1	
3	
1	
2	
3	
3	
3	
7	
5	
4	
2	
4	
3	
7	
2	
5	
2	
8	
3	
5	
0	
4	
4	
4	
3	
1	
6	
4	
2	
4	
2	
4	
4	
3	
5	
3	
4	
2	
4	
2	
1	
4	
1	
7	
2	
9	
5	
5	
0	
3	
0	
2	
5	
2	
0	
2	
3	
8	
2	
2	
1	
3	
3	
4	
5	
8	
5	
7	
3	
1	
5	
1	
1	
5	
4	
7	
4	
3	
3	
6	
4	
2	
5	
2	
6	
4	
7	
3	
2	
3	
3	
5	
3	
3	
2	
3	
7	
3	
6	
5	
4	
1	
3	
4	
5	
3	
4	
4	
3	
1	
3	
3	
2	
1	
4	
5	
4	
3	
3	
4	
3	
7	
6	
2	
1	
3	
4	
5	
2	
4	
6	
2	
5	
4	
2	
3	
2	
5	
2	
7	
6	
3	
6	
0	
4	
5	
3	
2	
3	
2	
2	
2	
2	
2	
1	
0	
2	
7	
6	
3	
5	
2	
2	
5	
3	
3	
6	
1	
3	
2	
5	
4	
8	
4	
2	
1	
1	
5	
5	
1	
4	
0	
3	
4	
4	
5	
3	
1	
1	
1	
7	
3	
4	
1	
2	
3	
6	
3	
3	
2	
1	
3	
1	
5	
1	
4	
2	
2	
1	
2	
4	
6	
2	
7	
5	
6	
6	
7	
3	
1	
4	
0	
7	
4	
2	
4	
3	
3	
2	
4	
6	
5	
1	
3	
3	
7	
5	
7	
0	
4	
3	
1	
1	
4	
4	
1	
2	
7	
4	
4	
2	
5	
8	
4	
0	
6	
0	
5	
0	
2	
5	
2	
2	
2	
5	
1	
7	
3	
2	
2	
2	
6	
5	
2	
3	
3	
1	
2	
2	
4	
4	
4	
3	
3	
2	
2	
1	
4	
2	
4	
3	
1	
2	
4	
5	
4	
1	
7	
2	
3	
2	
5	
4	
4	
3	
2	
2	
7	
1	
5	
2	
2	
3	
3	
7	
3	
4	
4	
1	
4	
5	
4	
0	
2	
3	
3	
6	
2	
3	
4	
2	
6	
0	
2	
5	
1	
2	
1	
6	
6	
1	
4	
4	
3	
1	
1	
4	
3	
3	
6	
3	
3	
3	
1	
1	
6	
1	
5	
1	
2	
2	
4	
2	
3	
3	
3	
3	
5	
4	
4	
2	
2	
1	
1	
4	
8	
2	
4	
11	
3	
2	
0	
2	
3	
3	
6	
3	
2	
2	
3	
1	
3	
4	
3	
4	
3	
5	
3	
3	
3	
5	
5	
1	
2	
2	
2	
1	
3	
3	
3	
1	
2	
3	
1	
3	
5	
2	
4	
6	
4	
6	
3	
2	
5	
5	
3	
3	
3	
6	
2	
2	
0	
4	
5	
2	
3	
3	
5	
3	
3	
1	
3	
1	
2	
3	
3	
2	
1	
5	
5	
1	
6	
4	
4	
4	
5	
1	
6	
1	
2	
3	
5	
0	
1	
3	
3	
2	
5	
3	
3	
4	
6	
5	
5	
4	
5	
4	
1	
3	
2	
4	
2	
4	
6	
1	
2	
0	
3	
1	
1	
6	
3	
0	
3	
2	
2	
1	
3	
2	
1	
4	
3	
6	
2	
2	
5	
6	
3	
5	
2	
5	
2	
4	
3	
3	
1	
4	
3	
5	
6	
1	
5	
3	
2	
3	
6	
2	
2	
3	
1	
3	
1	
3	
3	
1	
1	
3	
3	
2	
2	
4	
5	
4	
5	
3	
0	
3	
4	
2	
4	
6	
2	
3	
1	
1	
2	
2	
2	
4	
5	
2	
2	
2	
2	
1	
4	
3	
5	
4	
3	
4	
5	
3	
6	
1	
7	
7	
2	
7	
2	
3	
3	
6	
3	
3	
3	
1	
5	
3	
3	
4	
1	
2	
1	
5	
0	
1	
2	
5	
1	
2	
1	
3	
2	
2	
2	
2	
2	
4	
2	
3	
2	
3	
2	
0	
3	
5	
5	
2	
3	
3	
7	
1	
2	
3	
3	
2	
3	
2	
4	
1	
2	
4	
3	
3	
1	
1	
6	
4	
2	
4	
4	
2	
2	
4	
2	
2	
6	
2	
3	
4	
3	
3	
1	
2	
0	
2	
2	
2	
2	
1	
1	
1	
7	
2	
5	
3	
6	
3	
4	
4	
3	
1	
5	
3	
2	
4	
2	
1	
3	
2	
4	
6	
1	
4	
2	
1	
1	
3	
3	
3	
5	
2	
4	
4	
3	
1	
6	
3	
1	
1	
2	
6	
4	
3	
0	
2	
6	
3	
1	
5	
3	
6	
1	
1	
5	
3	
3	
6	
3	
4	
6	
8	
0	
5	
1	
2	
3	
2	
2	
1	
0	
2	
3	
1	
2	
2	
3	
3	
2	
2	
4	
4	
4	
8	
5	
6	
3	
1	
5	
3	
6	
4	
4	
3	
0	
3	
5	
5	
2	
3	
2	
5	
2	
4	
3	
1	
2	
3	
3	
8	
5	
5	
3	
2	
8	
1	
0	
3	
1	
2	
2	
4	
2	
6	
0	
3	
2	
4	
2	
0	
2	
5	
0	
4	
3	
1	
6	
4	
1	
3	
2	
6	
2	
2	
3	
4	
1	
4	
2	
1	
5	
4	
1	
1	
3	
2	
5	
2	
2	
3	
0	
5	
3	
5	
4	
2	
2	
4	
7	
3	
6	
2	
2	
2	
4	
4	
4	
3	
4	
1	
4	
5	
2	
3	
0	
2	
1	
3	
3	
8	
0	
0	
4	
3	
1	
1	
1	
1	
6	
2	
1	
3	
1	
0	
2	
2	
4	
4	
4	
7	
1	
4	
5	
1	
2	
5	
3	
4	
1	
3	
4	
5	
3	
4	
1	
4	
3	
3	
3	
5	
4	
2	
2	
1	
4	
3	
3	
3	
2	
3	
2	
3	
4	
4	
4	
5	
0	
3	
4	
2	
5	
5	
5	
4	
2	
4	
3	
4	
3	
2	
3	
4	
1	
6	
2	
1	
1	
1	
1	
9	
0	
2	
6	
1	
2	
3	
1	
4	
4	
3	
3	
1	
5	
1	
3	
1	
3	
6	
4	
3	
3	
2	
1	
6	
1	
3	
3	
1	
2	
2	
1	
3	
5	
6	
2	
2	
1	
3	
6	
1	
3	
1	
2	
4	
1	
1	
3	
4	
1	
4	
2	
2	
3	
3	
10	
3	
3	
3	
2	
4	
1	
2	
4	
0	
7	
3	
3	
4	
5	
0	
3	
2	
3	
3	
4	
4	
2	
1	
2	
2	
1	
0	
3	
2	
2	
3	
3	
1	
1	
7	
3	
0	
0	
4	
3	
1	
0	
5	
2	
3	
3	
3	
5	
2	
1	
1	
2	
5	
1	
3	
3	
2	
4	
3	
6	
2	
1	
0	
3	
1	
4	
5	
2	
4	
4	
4	
1	
3	
7	
3	
1	
3	
1	
2	
1	
2	
1	
4	
2	
1	
2	
2	
2	
3	
1	
1	
2	
2	
3	
1	
4	
2	
2	
3	
2	
2	
4	
4	
2	
2	
2	
2	
6	
2	
1	
3	
1	
1	
3	
2	
2	
2	
1	
2	
0	
0	
5	
2	
4	
3	
2	
2	
3	
1	
1	
2	
5	
2	
2	
1	
2	
5	
3	
3	
4	
3	
2	
4	
4	
2	
0	
3	
6	
2	
4	
1	
1	
6	
2	
2	
2	
0	
3	
3	
4	
1	
2	
3	
2	
2	
7	
0	
1	
5	
3	
4	
3	
5	
2	
7	
2	
5	
2	
0	
4	
3	
2	
4	
4	
3	
2	
7	
3	
4	
2	
4	
5	
3	
3	
2	
6	
2	
3	
2	
1	
3	
2	
5	
3	
3	
2	
2	
3	
3	
0	
5	
1	
2	
1	
1	
3	
0	
0	
4	
2	
2	
3	
3	
0	
4	
6	
3	
6	
5	
1	
2	
2	
3	
2	
1	
1	
4	
3	
2	
2	
2	
2	
3	
2	
5	
2	
2	
2	
2	
3	
2	
2	
2	
4	
0	
1	
3	
2	
0	
4	
0	
3	
5	
2	
1	
3	
4	
2	
1	
5	
4	
7	
5	
5	
5	
1	
1	
3	
1	
5	
3	
5	
5	
2	
2	
0	
6	
4	
3	
4	
4	
3	
1	
4	
2	
4	
4	
4	
2	
3	
3	
0	
4	
1	
1	
2	
3	
2	
7	
1	
2	
2	
1	
0	
2	
5	
2	
3	
5	
0	
4	
2	
4	
2	
3	
2	
4	
4	
3	
2	
2	
1	
3	
2	
3	
3	
4	
4	
3	
6	
1	
3	
2	
3	
4	
1	
5	
5	
2	
3	
2	
1	
5	
1	
2	
0	
2	
4	
2	
2	
5	
1	
6	
4	
3	
4	
2	
2	
3	
2	
1	
1	
6	
4	
6	
5	
0	
3	
5	
4	
2	
4	
4	
3	
3	
2	
2	
3	
3	
2	
2	
2	
2	
4	
2	
4	
3	
3	
2	
4	
3	
1	
3	
2	
3	
3	
2	
4	
3	
3	
4	
2	
0	
2	
2	
7	
5	
7	
1	
2	
5	
2	
1	
1	
1	
3	
2	
1	
2	
1	
2	
1	
0	
1	
1	
2	
1	
8	
1	
4	
6	
5	
3	
0	
2	
3	
3	
4	
1	
0	
3	
4	
2	
3	
0	
2	
1	
0	
1	
6	
2	
2	
1	
3	
5	
0	
4	
0	
2	
5	
2	
0	
2	
6	
4	
2	
4	
1	
2	
1	
1	
3	
4	
4	
2	
7	
6	
4	
0	
3	
4	
3	
5	
1	
1	
4	
3	
2	
1	
2	
4	
2	
2	
4	
6	
3	
1	
4	
3	
3	
4	
4	
2	
3	
3	
9	
4	
4	
3	
2	
2	
3	
2	
3	
2	
2	
3	
4	
2	
0	
4	
6	
1	
2	
3	
2	
1	
1	
5	
3	
1	
6	
2	
1	
4	
4	
2	
1	
1	
4	
3	
4	
0	
1	
5	
1	
7	
2	
0	
4	
1	
2	
1	
3	
1	
3	
6	
2	
2	
1	
2	
1	
2	
5	
3	
1	
5	
0	
1	
2	
2	
2	
3	
2	
3	
2	
3	
2	
3	
3	
1	
1	
6	
0	
3	
5	
3	
1	
7	
2	
2	
2	
4	
2	
2	
1	
0	
2	
2	
4	
2	
5	
0	
4	
2	
5	
2	
1	
2	
2	
4	
5	
0	
2	
3	
3	
1	
2	
2	
3	
2	
4	
1	
5	
3	
0	
5	
6	
3	
0	
0	
3	
3	
6	
5	
1	
1	
5	
1	
3	
1	
3	
3	
1	
3	
2	
5	
3	
3	
1	
3	
2	
2	
3	
3	
0	
0	
4	
2	
2	
2	
3	
1	
0	
3	
2	
0	
4	
1	
2	
3	
5	
5	
2	
2	
2	
1	
3	
0	
1	
1	
2	
3	
2	
1	
3	
3	
2	
2	
2	
3	
2	
2	
3	
2	
3	
1	
2	
3	
4	
3	
4	
3	
4	
2	
2	
0	
3	
2	
1	
3	
2	
6	
3	
4	
2	
3	
2	
5	
0	
0	
6	
2	
5	
2	
4	
3	
5	
1	
3	
2	
1	
3	
5	
3	
3	
2	
2	
1	
3	
1	
2	
2	
1	
0	
1	
2	
6	
0	
2	
4	
3	
3	
4	
2	
2	
1	
1	
4	
2	
4	
2	
3	
1	
2	
3	
2	
3	
6	
4	
1	
4	
3	
2	
2	
1	
4	
5	
2	
0	
4	
3	
2	
3	
4	
1	
2	
1	
0	
2	
2	
1	
0	
1	
6	
3	
3	
3	
3	
6	
3	
3	
3	
4	
3	
0	
4	
3	
5	
1	
4	
4	
1	
1	
3	
5	
3	
2	
2	
2	
1	
4	
4	
2	
2	
0	
5	
2	
0	
2	
3	
4	
1	
1	
4	
3	
2	
2	
2	
5	
2	
2	
1	
4	
5	
3	
2	
1	
5	
8	
1	
1	
2	
4	
2	
1	
2	
2	
2	
1	
1	
5	
1	
4	
2	
4	
3	
4	
0	
3	
4	
1	
0	
2	
3	
2	
1	
2	
6	
2	
3	
2	
3	
2	
1	
6	
3	
3	
3	
2	
3	
2	
3	
1	
0	
1	
2	
3	
2	
4	
2	
4	
2	
2	
6	
2	
2	
5	
2	
1	
3	
3	
1	
1	
3	
1	
5	
3	
3	
2	
2	
2	
4	
5	
3	
7	
4	
4	
5	
2	
4	
2	
3	
4	
2	
3	
1	
4	
3	
4	
2	
3	
2	
5	
2	
3	
2	
2	
4	
2	
2	
0	
2	
3	
1	
3	
1	
5	
1	
5	
0	
3	
2	
6	
1	
3	
2	
4	
3	
2	
4	
5	
1	
2	
2	
2	
3	
1	
3	
2	
1	
5	
4	
6	
2	
2	
3	
2	
1	
4	
1	
3	
2	
7	
1	
2	
1	
1	
2	
1	
2	
2	
1	
2	
3	
3	
1	
2	
1	
6	
2	
3	
2	
2	
3	
2	
3	
5	
4	
2	
3	
3	
2	
5	
0	
2	
1	
3	
4	
3	
4	
1	
2	
3	
1	
1	
1	
0	
3	
2	
2	
1	
2	
1	
3	
2	
5	
2	
3	
1	
4	
3	
4	
3	
0	
2	
4	
0	
3	
3	
3	
4	
4	
4	
1	
0	
1	
2	
3	
4	
2	
3	
3	
4	
2	
2	
3	
2	
2	
3	
2	
4	
4	
2	
1	
4	
3	
2	
3	
0	
3	
2	
0	
1	
6	
5	
1	
1	
3	
2	
2	
2	
2	
1	
2	
2	
3	
4	
3	
1	
3	
4	
2	
3	
3	
2	
1	
2	
1	
5	
1	
0	
0	
2	
3	
2	
5	
4	
1	
1	
3	
4	
3	
3	
2	
7	
5	
1	
3	
2	
2	
2	
1	
5	
3	
1	
2	
3	
5	
4	
3	
6	
2	
1	
3	
2	
1	
3	
7	
2	
1	
1	
3	
3	
2	
2	
4	
5	
4	
3	
1	
4	
3	
3	
2	
1	
0	
3	
3	
0	
4	
2	
4	
4	
3	
4	
2	
1	
1	
2	
2	
1	
7	
2	
1	
1	
4	
3	
5	
2	
1	
1	
1	
2	
0	
1	
3	
6	
5	
3	
0	
3	
1	
3	
1	
0	
3	
3	
0	
0	
2	
2	
1	
4	
5	
5	
3	
3	
4	
2	
2	
2	
2	
2	
3	
4	
3	
0	
2	
3	
2	
4	
2	
2	
3	
1	
2	
1	
1	
5	
1	
2	
1	
3	
1	
3	
1	
4	
3	
3	
4	
2	
2	
3	
5	
2	
3	
1	
4	
0	
2	
5	
5	
2	
0	
4	
3	
6	
1	
4	
3	
2	
2	
1	
3	
4	
5	
5	
3	
4	
1	
2	
1	
0	
4	
2	
3	
4	
2	
5	
3	
0	
6	
1	
4	
3	
1	
2	
2	
1	
1	
3	
3	
2	
3	
2	
4	
2	
0	
4	
2	
2	
2	
2	
3	
2	
3	
1	
3	
2	
1	
1	
3	
1	
1	
4	
3	
2	
1	
2	
2	
0	
2	
3	
2	
1	
1	
3	
3	
3	
1	
0	
2	
1	
3	
3	
1	
1	
0	
1	
2	
6	
3	
3	
1	
2	
0	
4	
1	
2	
5	
3	
5	
3	
0	
1	
0	
6	
3	
1	
1	
0	
0	
0	
0	
0	
0	
0	
0	
0	
0	
0	
0	
0	
0	
0	
0	
0	
0	
0	
0	
