#PicoHarp 300  Histogram Data			02/27/2023 03:27:04 PM
#channels per curve
7813
#display curve no.
0	
#memory block no.
0	
#ns/channel
0.1280	
#counts
4	
5	
1	
1	
5	
1	
2	
2	
5	
3	
6	
6	
0	
5	
4	
4	
3	
8	
3	
8	
4	
4	
2	
2	
2	
2	
2	
6	
5	
2	
4	
2	
5	
2	
1	
3	
2	
6	
2	
5	
3	
5	
3	
2	
4	
4	
5	
5	
5	
5	
6	
1	
1	
6	
2	
2	
4	
4	
1	
2	
3	
5	
2	
1	
5	
4	
3	
2	
2	
2	
2	
2	
2	
1	
2	
2	
3	
2	
2	
3	
1	
3	
3	
5	
2	
3	
1	
3	
4	
2	
3	
0	
1	
3	
5	
0	
3	
3	
4	
5	
2	
0	
1	
4	
3	
5	
1	
2	
0	
2	
2	
2	
3	
3	
3	
1	
5	
2	
3	
2	
1	
3	
6	
4	
3	
5	
3	
3	
4	
2	
4	
5	
2	
3	
2	
3	
2	
3	
2	
1	
2	
4	
4	
5	
5	
4	
0	
2	
0	
3	
2	
3	
4	
1	
2	
3	
2	
0	
3	
2	
4	
2	
1	
2	
1	
1	
3	
0	
2	
0	
7	
2	
2	
2	
5	
4	
4	
1	
1	
3	
5	
1	
2	
3	
3	
4	
1	
1	
3	
3	
3	
4	
2	
4	
4	
2	
2	
1	
5	
5	
4	
0	
1	
1	
4	
3	
2	
3	
3	
2	
3	
3	
1	
0	
4	
3	
4	
2	
2	
5	
1	
1	
2	
1	
6	
3	
3	
3	
4	
1	
3	
4	
3	
2	
1	
2	
1	
0	
6	
3	
1	
11	
13	
22	
34	
43	
79	
127	
192	
182	
187	
214	
255	
220	
202	
237	
257	
238	
236	
272	
240	
233	
254	
242	
223	
216	
235	
206	
199	
206	
250	
234	
218	
207	
199	
216	
225	
226	
198	
212	
199	
217	
216	
229	
203	
199	
177	
215	
190	
206	
195	
187	
200	
190	
191	
194	
199	
213	
179	
159	
213	
198	
188	
193	
199	
198	
163	
185	
187	
189	
163	
169	
161	
204	
181	
179	
172	
190	
170	
174	
195	
199	
174	
163	
185	
190	
172	
166	
175	
165	
197	
159	
161	
163	
193	
177	
185	
179	
188	
172	
176	
178	
169	
184	
175	
161	
159	
144	
156	
150	
176	
184	
162	
150	
146	
159	
153	
157	
158	
164	
173	
150	
169	
162	
169	
189	
174	
162	
140	
156	
191	
159	
177	
170	
163	
165	
180	
163	
169	
149	
164	
167	
151	
156	
159	
141	
155	
155	
139	
151	
159	
162	
144	
140	
159	
160	
157	
142	
124	
151	
172	
154	
157	
141	
137	
170	
145	
169	
156	
155	
150	
150	
164	
129	
151	
134	
170	
153	
152	
153	
130	
168	
148	
155	
145	
146	
171	
160	
138	
143	
158	
164	
146	
137	
146	
149	
140	
142	
143	
155	
107	
143	
131	
140	
122	
122	
134	
137	
154	
153	
125	
123	
133	
146	
138	
157	
137	
144	
118	
136	
139	
145	
138	
127	
122	
146	
121	
145	
143	
129	
140	
142	
151	
129	
131	
155	
135	
124	
124	
149	
152	
133	
117	
158	
135	
161	
132	
131	
129	
141	
123	
137	
127	
144	
154	
116	
138	
157	
138	
144	
106	
122	
111	
126	
130	
126	
131	
124	
130	
127	
137	
134	
135	
134	
117	
140	
132	
110	
121	
123	
113	
145	
133	
122	
122	
129	
120	
112	
142	
120	
118	
111	
129	
136	
133	
137	
129	
130	
117	
120	
120	
124	
116	
122	
112	
118	
128	
125	
136	
132	
142	
126	
129	
122	
130	
117	
125	
116	
116	
113	
113	
126	
110	
123	
112	
104	
100	
116	
128	
120	
120	
116	
112	
120	
99	
95	
127	
95	
115	
126	
110	
120	
100	
100	
104	
133	
89	
115	
109	
107	
117	
103	
115	
101	
112	
106	
131	
102	
128	
111	
101	
96	
127	
105	
116	
113	
103	
101	
108	
132	
118	
113	
109	
111	
110	
97	
124	
91	
117	
120	
115	
94	
101	
112	
100	
112	
106	
116	
104	
113	
102	
111	
92	
99	
112	
81	
101	
110	
116	
123	
108	
108	
121	
102	
102	
92	
100	
127	
102	
83	
112	
105	
108	
100	
104	
90	
95	
106	
102	
104	
122	
110	
100	
104	
123	
95	
98	
101	
99	
86	
106	
90	
106	
106	
96	
97	
102	
97	
98	
115	
87	
110	
99	
109	
84	
77	
86	
80	
90	
85	
99	
105	
97	
102	
110	
105	
103	
92	
90	
114	
116	
98	
83	
118	
104	
101	
95	
97	
103	
97	
84	
88	
101	
89	
70	
89	
80	
104	
96	
109	
95	
106	
106	
91	
96	
94	
105	
88	
102	
98	
82	
106	
100	
94	
92	
105	
89	
114	
83	
86	
94	
103	
89	
91	
86	
88	
77	
96	
87	
92	
87	
89	
107	
75	
93	
97	
93	
95	
89	
91	
107	
88	
88	
93	
85	
98	
89	
105	
91	
90	
106	
81	
85	
90	
105	
78	
86	
88	
71	
95	
87	
104	
75	
90	
94	
71	
79	
104	
86	
88	
93	
93	
96	
86	
74	
86	
107	
73	
93	
92	
79	
70	
68	
89	
91	
89	
78	
90	
83	
100	
96	
75	
85	
101	
82	
89	
87	
73	
101	
71	
85	
84	
81	
94	
87	
85	
76	
81	
68	
81	
75	
74	
84	
82	
74	
78	
83	
93	
91	
71	
99	
75	
83	
74	
81	
83	
98	
84	
82	
87	
83	
83	
87	
78	
91	
91	
83	
78	
82	
84	
88	
88	
89	
78	
82	
88	
83	
78	
88	
87	
85	
73	
79	
82	
84	
77	
97	
80	
64	
103	
75	
71	
94	
85	
79	
83	
67	
74	
88	
94	
82	
67	
77	
83	
84	
86	
80	
88	
67	
77	
85	
67	
82	
72	
88	
65	
80	
82	
67	
62	
57	
58	
80	
74	
80	
83	
71	
66	
77	
69	
77	
73	
72	
72	
77	
78	
80	
66	
77	
74	
55	
76	
72	
90	
53	
86	
74	
76	
72	
69	
80	
64	
74	
84	
62	
82	
62	
77	
66	
66	
64	
69	
72	
70	
84	
72	
70	
77	
74	
62	
69	
52	
72	
58	
65	
69	
79	
81	
72	
66	
84	
81	
69	
66	
76	
70	
72	
84	
79	
58	
73	
78	
65	
65	
80	
62	
82	
61	
67	
75	
65	
71	
71	
74	
81	
72	
52	
79	
69	
84	
66	
80	
81	
67	
85	
62	
55	
69	
75	
64	
59	
75	
76	
59	
63	
53	
72	
65	
54	
70	
63	
72	
69	
69	
58	
57	
77	
65	
78	
53	
72	
71	
64	
52	
52	
70	
58	
79	
81	
67	
59	
60	
69	
71	
56	
76	
64	
69	
55	
73	
68	
63	
62	
65	
70	
72	
59	
62	
66	
52	
64	
65	
60	
53	
69	
64	
64	
70	
63	
61	
61	
60	
63	
72	
79	
69	
74	
54	
63	
68	
62	
68	
63	
64	
63	
83	
73	
60	
56	
63	
53	
44	
78	
67	
38	
70	
67	
48	
57	
49	
59	
51	
64	
53	
61	
63	
60	
53	
61	
49	
78	
51	
59	
72	
54	
60	
77	
60	
72	
52	
51	
65	
76	
52	
57	
58	
73	
56	
65	
60	
60	
58	
72	
62	
67	
53	
62	
66	
58	
60	
56	
51	
49	
67	
62	
65	
43	
59	
49	
64	
64	
44	
65	
59	
52	
57	
44	
46	
59	
70	
68	
73	
60	
51	
56	
52	
57	
69	
55	
54	
48	
58	
63	
54	
66	
61	
59	
49	
49	
65	
61	
59	
46	
50	
58	
69	
60	
50	
50	
41	
53	
46	
51	
54	
58	
57	
67	
59	
49	
55	
41	
36	
52	
61	
52	
49	
48	
65	
51	
45	
66	
60	
53	
45	
62	
63	
53	
72	
59	
59	
59	
38	
58	
46	
65	
52	
45	
57	
48	
53	
48	
57	
58	
54	
50	
56	
56	
53	
62	
53	
61	
48	
48	
52	
50	
59	
44	
64	
49	
51	
54	
61	
65	
41	
45	
69	
48	
55	
49	
56	
52	
46	
51	
55	
58	
55	
68	
50	
58	
36	
53	
46	
60	
49	
55	
49	
46	
66	
39	
67	
37	
40	
53	
56	
55	
43	
41	
41	
55	
59	
52	
52	
44	
45	
46	
63	
37	
59	
48	
44	
53	
34	
52	
39	
46	
46	
47	
51	
48	
58	
60	
49	
45	
51	
53	
51	
50	
54	
44	
47	
33	
47	
47	
52	
36	
50	
52	
57	
41	
42	
44	
45	
43	
50	
46	
57	
59	
50	
49	
42	
56	
42	
49	
48	
52	
48	
49	
44	
52	
43	
44	
32	
41	
42	
43	
43	
51	
57	
52	
44	
51	
44	
57	
48	
37	
44	
45	
48	
53	
53	
41	
41	
56	
53	
44	
44	
41	
48	
38	
40	
41	
43	
42	
39	
47	
55	
55	
42	
52	
39	
47	
39	
35	
46	
32	
33	
48	
59	
41	
46	
45	
45	
43	
45	
46	
41	
55	
50	
33	
37	
42	
52	
43	
38	
41	
34	
36	
49	
54	
45	
39	
45	
44	
55	
36	
46	
39	
57	
43	
53	
29	
55	
39	
47	
48	
55	
45	
43	
34	
64	
53	
35	
34	
52	
43	
37	
38	
51	
49	
46	
51	
50	
38	
50	
37	
50	
37	
35	
34	
37	
45	
49	
30	
36	
39	
45	
40	
41	
36	
44	
33	
43	
56	
47	
42	
31	
27	
32	
40	
36	
47	
47	
35	
46	
43	
39	
43	
33	
36	
50	
33	
39	
50	
37	
46	
37	
32	
51	
39	
47	
48	
39	
42	
37	
42	
32	
47	
42	
31	
38	
29	
47	
50	
33	
30	
45	
36	
37	
42	
41	
47	
44	
46	
42	
43	
40	
37	
35	
43	
39	
55	
44	
31	
34	
40	
43	
32	
38	
43	
45	
47	
47	
39	
35	
38	
27	
34	
46	
45	
32	
30	
43	
40	
50	
44	
40	
35	
43	
38	
33	
35	
36	
34	
30	
46	
46	
35	
36	
48	
31	
33	
30	
34	
42	
43	
41	
40	
36	
44	
45	
36	
42	
29	
29	
49	
46	
43	
33	
41	
45	
49	
45	
39	
29	
34	
32	
36	
37	
37	
46	
34	
36	
39	
30	
39	
32	
37	
28	
45	
46	
29	
40	
31	
36	
38	
31	
39	
45	
47	
35	
39	
44	
36	
36	
35	
38	
38	
41	
39	
49	
33	
40	
44	
42	
42	
39	
41	
34	
34	
43	
34	
21	
41	
38	
32	
37	
43	
43	
35	
28	
32	
35	
36	
44	
36	
27	
36	
35	
37	
40	
24	
33	
37	
36	
25	
27	
34	
24	
43	
29	
28	
32	
38	
38	
29	
38	
37	
36	
36	
35	
36	
35	
36	
38	
34	
34	
37	
27	
25	
38	
42	
29	
25	
40	
49	
33	
37	
29	
37	
25	
39	
38	
41	
32	
49	
37	
31	
37	
31	
32	
42	
29	
34	
29	
35	
35	
28	
30	
36	
33	
29	
31	
35	
26	
38	
36	
30	
41	
29	
44	
35	
43	
41	
26	
24	
21	
23	
30	
31	
40	
36	
28	
39	
25	
22	
17	
31	
31	
37	
43	
39	
30	
28	
40	
40	
24	
38	
28	
27	
31	
39	
32	
27	
28	
37	
28	
33	
41	
27	
32	
36	
35	
26	
25	
34	
31	
24	
35	
30	
21	
35	
42	
39	
27	
36	
33	
22	
30	
36	
38	
28	
29	
33	
31	
35	
23	
31	
34	
35	
38	
30	
33	
26	
27	
26	
36	
38	
38	
25	
30	
27	
35	
37	
29	
34	
46	
41	
40	
28	
37	
25	
31	
22	
22	
36	
26	
37	
38	
40	
33	
39	
31	
38	
31	
28	
36	
25	
26	
30	
30	
36	
18	
37	
32	
26	
37	
39	
41	
42	
26	
30	
33	
23	
32	
37	
35	
30	
41	
28	
36	
27	
20	
25	
30	
27	
29	
35	
28	
48	
29	
37	
28	
22	
39	
23	
27	
24	
36	
18	
27	
32	
32	
33	
39	
33	
33	
19	
32	
33	
31	
30	
22	
29	
25	
37	
21	
33	
30	
27	
28	
21	
28	
30	
36	
40	
25	
22	
41	
24	
33	
34	
28	
22	
30	
31	
28	
34	
37	
33	
36	
28	
29	
26	
30	
27	
35	
26	
29	
30	
28	
26	
30	
26	
25	
36	
29	
35	
30	
37	
19	
34	
33	
26	
34	
28	
30	
33	
23	
33	
19	
40	
20	
33	
28	
19	
27	
22	
22	
26	
25	
29	
36	
27	
24	
29	
20	
23	
21	
27	
30	
31	
22	
31	
27	
25	
20	
25	
29	
25	
21	
31	
31	
26	
27	
18	
17	
28	
23	
32	
23	
31	
25	
29	
38	
20	
23	
22	
25	
25	
31	
24	
29	
16	
26	
29	
29	
33	
32	
23	
18	
18	
26	
26	
46	
28	
19	
16	
19	
18	
27	
24	
22	
22	
21	
28	
19	
17	
30	
27	
27	
21	
19	
22	
16	
26	
22	
26	
29	
27	
24	
27	
25	
30	
27	
39	
25	
21	
25	
28	
21	
25	
24	
32	
23	
25	
21	
27	
23	
34	
23	
35	
19	
22	
27	
31	
31	
24	
21	
20	
22	
22	
29	
31	
32	
26	
27	
33	
25	
21	
26	
36	
28	
27	
24	
32	
26	
25	
22	
18	
28	
32	
26	
21	
25	
30	
26	
26	
25	
23	
30	
21	
26	
12	
23	
30	
20	
34	
30	
31	
17	
30	
24	
30	
24	
24	
29	
26	
19	
19	
24	
26	
18	
22	
19	
24	
27	
22	
22	
23	
26	
20	
24	
27	
22	
24	
38	
36	
24	
19	
23	
22	
20	
25	
16	
32	
30	
17	
27	
19	
28	
19	
21	
23	
22	
28	
23	
32	
24	
29	
28	
13	
18	
25	
30	
23	
23	
22	
25	
34	
29	
22	
24	
21	
23	
27	
30	
26	
21	
22	
20	
22	
19	
18	
30	
28	
21	
21	
27	
21	
22	
21	
27	
23	
22	
19	
20	
26	
27	
32	
20	
25	
29	
31	
20	
25	
22	
21	
23	
16	
24	
27	
30	
17	
23	
19	
26	
33	
16	
19	
25	
22	
22	
22	
19	
28	
30	
23	
26	
24	
22	
21	
34	
33	
17	
20	
29	
16	
18	
30	
22	
22	
17	
20	
21	
19	
17	
25	
23	
18	
26	
18	
22	
23	
26	
27	
25	
29	
18	
23	
19	
22	
18	
28	
28	
17	
27	
27	
15	
27	
17	
23	
25	
26	
22	
19	
21	
13	
14	
21	
19	
21	
21	
21	
24	
25	
17	
13	
19	
21	
21	
24	
24	
23	
24	
23	
25	
25	
23	
23	
19	
20	
18	
22	
23	
29	
19	
25	
19	
19	
18	
19	
19	
14	
22	
25	
24	
27	
15	
16	
21	
26	
19	
18	
26	
15	
22	
15	
16	
22	
19	
17	
23	
20	
28	
23	
24	
21	
21	
17	
14	
18	
18	
25	
17	
14	
19	
25	
11	
24	
21	
19	
16	
34	
32	
13	
20	
23	
15	
19	
25	
20	
18	
28	
16	
22	
12	
18	
20	
22	
14	
25	
23	
20	
15	
27	
23	
21	
19	
16	
15	
19	
21	
16	
24	
26	
20	
18	
15	
26	
20	
18	
19	
18	
20	
19	
17	
20	
14	
17	
21	
15	
19	
20	
26	
17	
18	
19	
20	
24	
18	
14	
17	
22	
20	
21	
17	
17	
26	
17	
22	
16	
21	
16	
16	
21	
21	
22	
14	
20	
11	
15	
18	
11	
23	
19	
19	
28	
15	
16	
15	
16	
22	
11	
27	
24	
17	
22	
27	
20	
16	
18	
23	
17	
21	
15	
21	
23	
25	
18	
23	
17	
24	
23	
18	
16	
22	
16	
14	
25	
14	
24	
19	
17	
20	
14	
14	
14	
14	
17	
24	
16	
11	
14	
23	
13	
16	
15	
25	
15	
25	
26	
17	
24	
17	
28	
27	
25	
20	
19	
14	
20	
21	
23	
15	
17	
20	
18	
21	
18	
22	
19	
12	
26	
25	
18	
18	
22	
18	
17	
13	
20	
18	
20	
24	
16	
13	
17	
19	
20	
13	
14	
21	
27	
20	
15	
14	
18	
24	
19	
19	
24	
19	
22	
19	
14	
19	
16	
18	
17	
23	
23	
23	
11	
7	
22	
16	
23	
13	
23	
18	
16	
17	
26	
15	
18	
15	
15	
19	
9	
14	
17	
19	
11	
13	
20	
23	
9	
19	
23	
12	
19	
14	
15	
11	
21	
19	
15	
18	
20	
19	
17	
16	
13	
10	
8	
12	
18	
18	
12	
17	
17	
16	
17	
15	
10	
20	
13	
21	
19	
15	
13	
21	
16	
13	
19	
16	
25	
11	
25	
8	
17	
23	
13	
11	
15	
25	
17	
20	
21	
11	
17	
15	
13	
12	
12	
16	
22	
13	
17	
14	
19	
15	
18	
12	
17	
22	
21	
22	
21	
14	
20	
11	
17	
20	
20	
11	
24	
22	
16	
14	
12	
23	
18	
26	
16	
23	
14	
19	
15	
15	
16	
17	
17	
16	
13	
17	
14	
17	
18	
11	
16	
19	
14	
21	
11	
9	
13	
15	
13	
18	
13	
16	
16	
22	
18	
17	
15	
12	
11	
24	
22	
17	
13	
21	
13	
16	
16	
10	
11	
22	
11	
10	
11	
15	
16	
20	
11	
25	
12	
20	
15	
13	
13	
12	
14	
20	
19	
16	
23	
15	
23	
14	
16	
16	
18	
19	
9	
15	
20	
21	
13	
10	
11	
24	
13	
19	
11	
17	
15	
7	
22	
13	
12	
7	
12	
11	
17	
17	
14	
18	
22	
11	
19	
17	
10	
16	
15	
21	
16	
17	
18	
15	
15	
14	
13	
18	
12	
22	
12	
20	
17	
19	
11	
12	
16	
14	
16	
20	
11	
24	
8	
13	
12	
19	
17	
18	
12	
14	
14	
19	
24	
19	
14	
15	
15	
22	
12	
16	
12	
19	
20	
7	
17	
22	
11	
16	
14	
12	
9	
18	
9	
6	
19	
15	
15	
5	
16	
19	
14	
12	
18	
14	
12	
16	
12	
13	
12	
12	
11	
4	
12	
14	
16	
14	
10	
15	
15	
15	
13	
19	
16	
15	
13	
14	
12	
14	
17	
12	
15	
22	
17	
14	
17	
15	
18	
17	
8	
25	
13	
12	
11	
15	
15	
16	
15	
14	
15	
17	
17	
19	
17	
19	
11	
10	
11	
13	
12	
14	
15	
15	
14	
13	
18	
12	
16	
16	
13	
19	
15	
20	
22	
13	
18	
10	
11	
11	
15	
13	
8	
11	
16	
16	
18	
9	
20	
11	
15	
13	
20	
17	
15	
8	
13	
17	
18	
12	
11	
13	
16	
13	
17	
15	
13	
17	
13	
16	
14	
15	
14	
11	
18	
16	
8	
13	
15	
13	
13	
12	
20	
13	
18	
15	
13	
13	
14	
10	
15	
22	
17	
10	
15	
14	
13	
18	
9	
13	
20	
20	
16	
15	
11	
13	
23	
12	
14	
15	
11	
14	
12	
10	
17	
12	
13	
18	
17	
12	
11	
9	
10	
15	
14	
9	
19	
20	
13	
14	
16	
14	
10	
16	
14	
17	
13	
11	
13	
16	
18	
15	
12	
8	
9	
13	
15	
9	
11	
16	
9	
16	
7	
11	
15	
11	
13	
11	
16	
10	
10	
19	
18	
10	
15	
12	
17	
27	
12	
16	
19	
17	
11	
13	
10	
11	
16	
6	
10	
18	
8	
8	
11	
9	
11	
15	
11	
16	
17	
19	
18	
12	
10	
17	
11	
15	
14	
12	
9	
14	
13	
13	
21	
15	
11	
13	
12	
7	
16	
19	
15	
13	
8	
8	
11	
15	
14	
21	
17	
11	
10	
18	
11	
7	
11	
16	
5	
17	
9	
15	
13	
16	
16	
20	
17	
17	
13	
11	
14	
20	
16	
17	
8	
6	
9	
9	
16	
13	
11	
14	
7	
13	
9	
8	
8	
13	
15	
15	
18	
10	
10	
13	
12	
14	
14	
12	
10	
14	
17	
11	
9	
9	
10	
11	
14	
15	
11	
13	
11	
11	
14	
5	
10	
12	
10	
16	
9	
9	
11	
8	
12	
12	
13	
7	
7	
13	
14	
17	
13	
10	
15	
12	
17	
13	
11	
13	
11	
11	
12	
10	
9	
12	
11	
10	
21	
9	
9	
16	
11	
12	
15	
10	
5	
10	
11	
9	
13	
13	
9	
8	
11	
12	
11	
12	
14	
12	
10	
5	
12	
11	
10	
9	
13	
15	
8	
12	
10	
9	
14	
20	
12	
7	
10	
8	
9	
11	
15	
10	
15	
12	
11	
13	
11	
11	
15	
10	
11	
11	
10	
18	
17	
13	
17	
12	
11	
8	
15	
13	
15	
10	
9	
15	
13	
9	
14	
13	
11	
12	
14	
4	
13	
18	
8	
13	
12	
14	
10	
12	
13	
10	
13	
12	
6	
17	
16	
8	
16	
10	
5	
15	
13	
13	
12	
8	
11	
9	
4	
12	
13	
11	
9	
11	
17	
12	
16	
17	
10	
13	
11	
6	
9	
7	
9	
12	
11	
13	
9	
9	
8	
11	
12	
11	
12	
15	
11	
14	
10	
15	
15	
11	
10	
8	
11	
10	
12	
20	
14	
5	
8	
6	
8	
11	
8	
10	
11	
10	
8	
13	
9	
9	
12	
8	
8	
11	
12	
7	
23	
19	
6	
18	
12	
16	
15	
15	
13	
15	
7	
11	
14	
14	
12	
11	
12	
7	
11	
15	
13	
10	
10	
21	
10	
9	
5	
10	
14	
10	
11	
8	
9	
9	
19	
9	
15	
11	
8	
6	
10	
12	
12	
16	
15	
8	
11	
10	
14	
8	
8	
15	
16	
7	
10	
7	
8	
7	
14	
9	
11	
12	
10	
11	
6	
13	
12	
14	
9	
12	
12	
11	
6	
7	
11	
14	
12	
12	
10	
8	
6	
13	
4	
7	
8	
12	
15	
10	
6	
7	
16	
11	
7	
4	
11	
10	
8	
12	
4	
11	
5	
16	
11	
13	
10	
9	
11	
11	
14	
10	
3	
6	
16	
17	
14	
9	
16	
15	
14	
12	
12	
7	
11	
11	
10	
4	
11	
8	
14	
12	
11	
10	
9	
9	
17	
8	
8	
13	
16	
9	
12	
12	
17	
8	
7	
3	
9	
8	
14	
11	
8	
11	
11	
12	
21	
10	
12	
6	
7	
11	
11	
7	
13	
12	
7	
7	
10	
9	
8	
6	
16	
15	
8	
9	
6	
6	
10	
7	
15	
7	
10	
8	
12	
7	
6	
13	
7	
19	
6	
5	
11	
15	
12	
9	
13	
9	
11	
16	
17	
7	
11	
12	
12	
17	
3	
7	
7	
11	
9	
6	
12	
9	
8	
12	
10	
5	
4	
7	
12	
12	
11	
7	
11	
13	
13	
8	
15	
14	
9	
7	
5	
8	
8	
11	
6	
6	
9	
2	
7	
11	
13	
11	
10	
11	
11	
12	
13	
14	
6	
15	
7	
10	
11	
7	
7	
15	
9	
8	
8	
8	
12	
5	
10	
13	
8	
16	
12	
13	
6	
8	
8	
9	
10	
14	
11	
8	
9	
7	
14	
14	
6	
9	
14	
11	
8	
10	
10	
6	
13	
9	
10	
5	
10	
12	
12	
9	
13	
4	
11	
12	
12	
5	
5	
8	
8	
16	
7	
6	
8	
5	
8	
5	
12	
13	
8	
9	
11	
13	
10	
15	
14	
11	
9	
9	
8	
14	
7	
10	
7	
10	
9	
7	
9	
6	
9	
6	
3	
16	
10	
9	
7	
11	
16	
11	
11	
12	
17	
11	
21	
15	
8	
8	
5	
7	
11	
6	
9	
10	
8	
7	
12	
13	
9	
5	
6	
13	
6	
7	
9	
8	
11	
12	
7	
11	
7	
15	
9	
4	
6	
7	
14	
5	
11	
11	
9	
12	
7	
11	
8	
8	
10	
9	
9	
8	
7	
10	
5	
9	
8	
12	
9	
13	
6	
10	
16	
12	
10	
12	
8	
5	
3	
7	
9	
4	
6	
9	
11	
6	
5	
7	
10	
6	
12	
3	
9	
6	
8	
8	
8	
15	
7	
14	
7	
10	
9	
11	
13	
7	
3	
9	
8	
7	
15	
6	
14	
10	
10	
8	
8	
4	
6	
9	
8	
9	
7	
8	
9	
13	
9	
7	
10	
7	
5	
9	
10	
14	
6	
10	
8	
11	
9	
3	
13	
13	
6	
12	
8	
5	
8	
5	
13	
11	
11	
5	
5	
9	
13	
9	
5	
3	
9	
13	
11	
9	
14	
8	
9	
8	
4	
11	
8	
6	
9	
9	
10	
8	
8	
12	
6	
7	
8	
7	
9	
8	
9	
8	
8	
5	
5	
13	
4	
12	
7	
4	
12	
5	
7	
14	
8	
8	
12	
5	
8	
10	
12	
8	
5	
12	
8	
12	
12	
11	
8	
10	
11	
12	
6	
12	
5	
6	
5	
10	
4	
2	
7	
6	
8	
7	
8	
4	
10	
7	
8	
9	
8	
7	
7	
13	
8	
9	
8	
5	
9	
13	
8	
1	
4	
7	
14	
8	
10	
10	
6	
10	
10	
15	
6	
5	
5	
8	
7	
6	
7	
12	
3	
5	
13	
9	
15	
8	
5	
5	
11	
11	
8	
6	
8	
10	
11	
9	
5	
8	
7	
5	
7	
8	
9	
12	
7	
7	
4	
6	
11	
10	
13	
7	
5	
6	
8	
1	
11	
12	
11	
7	
10	
5	
5	
10	
3	
4	
8	
4	
5	
8	
2	
8	
4	
8	
8	
3	
6	
7	
6	
7	
7	
6	
9	
4	
5	
7	
10	
8	
9	
4	
3	
6	
5	
6	
15	
6	
6	
12	
7	
6	
8	
3	
9	
5	
8	
7	
6	
9	
8	
3	
4	
3	
8	
8	
12	
10	
11	
6	
12	
5	
11	
9	
14	
3	
4	
9	
8	
8	
8	
8	
6	
9	
6	
8	
8	
6	
4	
9	
9	
6	
9	
9	
2	
9	
5	
6	
5	
6	
9	
8	
13	
9	
5	
12	
12	
10	
7	
5	
7	
7	
10	
11	
6	
6	
5	
6	
10	
11	
6	
9	
4	
5	
10	
11	
3	
8	
7	
10	
13	
6	
10	
5	
6	
7	
5	
7	
7	
8	
12	
6	
8	
4	
5	
11	
12	
9	
7	
8	
5	
13	
7	
5	
10	
7	
9	
10	
6	
11	
9	
7	
10	
6	
7	
11	
6	
6	
14	
7	
9	
5	
4	
8	
4	
6	
10	
6	
17	
4	
8	
4	
4	
5	
5	
7	
13	
8	
7	
5	
4	
9	
9	
9	
7	
8	
6	
6	
7	
6	
9	
11	
5	
10	
7	
9	
9	
3	
3	
5	
5	
9	
4	
9	
7	
6	
6	
5	
13	
9	
6	
8	
6	
5	
7	
5	
9	
11	
8	
8	
7	
6	
5	
9	
4	
5	
5	
5	
5	
4	
3	
4	
4	
6	
3	
7	
3	
7	
3	
5	
5	
4	
5	
4	
3	
8	
10	
4	
6	
6	
9	
8	
4	
5	
7	
4	
10	
6	
4	
6	
8	
10	
6	
12	
16	
6	
6	
7	
8	
7	
4	
8	
4	
8	
8	
3	
10	
7	
6	
12	
6	
11	
3	
5	
7	
4	
3	
7	
7	
8	
6	
8	
10	
10	
6	
8	
9	
8	
6	
7	
6	
9	
3	
4	
10	
6	
6	
4	
4	
7	
7	
9	
7	
8	
12	
7	
5	
3	
9	
3	
12	
4	
6	
8	
5	
5	
8	
5	
5	
5	
6	
3	
8	
7	
3	
9	
4	
3	
8	
5	
11	
12	
9	
8	
6	
5	
10	
6	
7	
7	
6	
10	
5	
7	
12	
2	
9	
4	
9	
4	
6	
4	
6	
9	
6	
6	
10	
7	
8	
9	
11	
5	
8	
10	
9	
7	
6	
5	
5	
7	
5	
9	
11	
5	
8	
1	
9	
9	
8	
6	
9	
2	
7	
6	
8	
5	
5	
6	
5	
6	
8	
10	
10	
5	
12	
2	
10	
6	
6	
6	
6	
3	
12	
5	
8	
8	
3	
5	
9	
6	
3	
5	
8	
8	
8	
10	
11	
2	
3	
8	
6	
10	
6	
2	
3	
7	
8	
9	
2	
9	
4	
9	
2	
10	
5	
10	
9	
4	
5	
4	
17	
12	
12	
8	
11	
7	
9	
5	
5	
12	
7	
6	
8	
4	
7	
5	
9	
6	
6	
5	
3	
5	
8	
7	
7	
7	
7	
11	
9	
6	
4	
9	
5	
8	
10	
9	
4	
11	
6	
5	
2	
8	
10	
5	
7	
7	
11	
7	
5	
6	
5	
6	
2	
5	
9	
11	
6	
7	
7	
11	
10	
7	
4	
2	
6	
6	
4	
11	
7	
9	
9	
5	
3	
4	
7	
6	
6	
7	
2	
5	
6	
5	
3	
8	
7	
5	
7	
6	
6	
4	
5	
9	
6	
6	
8	
6	
3	
3	
6	
5	
8	
5	
4	
6	
10	
6	
2	
3	
5	
9	
7	
6	
8	
14	
6	
5	
8	
6	
10	
5	
5	
5	
2	
4	
7	
5	
5	
4	
4	
4	
8	
13	
3	
10	
5	
12	
5	
3	
6	
6	
8	
8	
6	
5	
7	
3	
6	
8	
2	
6	
2	
7	
11	
3	
7	
7	
7	
6	
7	
6	
7	
6	
7	
2	
6	
6	
5	
7	
6	
2	
5	
4	
2	
6	
6	
2	
14	
5	
6	
9	
8	
4	
3	
9	
5	
5	
5	
6	
5	
2	
6	
9	
5	
5	
3	
6	
3	
5	
3	
9	
4	
4	
5	
7	
5	
5	
6	
6	
5	
5	
8	
8	
6	
2	
7	
3	
8	
6	
8	
3	
6	
5	
4	
4	
4	
5	
4	
7	
6	
9	
9	
7	
5	
4	
11	
10	
3	
3	
6	
4	
5	
4	
6	
12	
9	
8	
7	
9	
7	
8	
8	
3	
9	
8	
4	
6	
3	
8	
9	
7	
7	
6	
8	
12	
7	
8	
8	
6	
1	
8	
8	
4	
5	
7	
9	
7	
6	
4	
4	
1	
5	
3	
4	
10	
7	
7	
3	
6	
5	
4	
7	
11	
3	
0	
6	
1	
2	
7	
3	
7	
4	
6	
8	
7	
6	
5	
9	
9	
10	
9	
8	
4	
7	
9	
9	
6	
8	
3	
3	
3	
5	
3	
5	
8	
8	
4	
5	
4	
3	
4	
3	
1	
4	
6	
6	
2	
4	
4	
8	
5	
6	
5	
3	
7	
6	
9	
1	
3	
4	
6	
9	
2	
6	
6	
6	
9	
9	
6	
2	
4	
3	
11	
7	
4	
6	
7	
5	
4	
8	
4	
8	
7	
9	
6	
5	
9	
5	
2	
4	
4	
5	
8	
8	
7	
5	
4	
3	
6	
5	
5	
7	
1	
7	
5	
8	
4	
4	
3	
6	
6	
5	
2	
4	
8	
9	
8	
10	
5	
5	
4	
5	
4	
6	
7	
4	
3	
2	
5	
4	
5	
7	
3	
2	
6	
5	
5	
7	
10	
4	
6	
8	
7	
4	
5	
10	
8	
4	
3	
6	
4	
3	
4	
11	
4	
6	
7	
5	
8	
5	
3	
5	
5	
6	
6	
1	
3	
2	
3	
5	
0	
3	
6	
7	
10	
4	
6	
9	
6	
5	
4	
9	
9	
4	
8	
5	
5	
7	
2	
3	
8	
5	
3	
4	
4	
2	
4	
4	
4	
5	
3	
5	
5	
3	
6	
10	
6	
3	
5	
11	
6	
6	
7	
7	
3	
4	
3	
2	
5	
2	
6	
8	
11	
9	
11	
3	
6	
1	
12	
5	
2	
4	
4	
7	
7	
10	
7	
7	
8	
4	
6	
9	
3	
4	
6	
5	
4	
6	
5	
4	
5	
5	
6	
7	
6	
7	
9	
6	
5	
2	
5	
1	
3	
6	
5	
7	
7	
6	
3	
7	
3	
11	
5	
2	
3	
10	
7	
8	
3	
4	
3	
5	
6	
6	
4	
3	
8	
5	
4	
9	
5	
4	
6	
5	
2	
6	
8	
2	
5	
5	
5	
1	
5	
5	
4	
9	
8	
5	
6	
7	
6	
3	
3	
5	
12	
6	
8	
6	
6	
8	
4	
2	
4	
3	
4	
5	
5	
7	
5	
6	
9	
1	
3	
5	
11	
5	
3	
6	
7	
5	
6	
4	
3	
3	
4	
3	
4	
8	
6	
7	
6	
8	
4	
8	
5	
8	
5	
4	
8	
4	
3	
9	
5	
4	
4	
9	
11	
3	
3	
5	
5	
3	
6	
2	
2	
3	
4	
4	
6	
4	
6	
4	
3	
4	
3	
4	
5	
6	
7	
5	
3	
11	
2	
3	
4	
10	
4	
6	
8	
12	
0	
5	
7	
6	
9	
5	
2	
6	
6	
4	
9	
5	
2	
2	
3	
4	
8	
3	
3	
5	
7	
4	
2	
6	
4	
2	
1	
3	
3	
7	
6	
8	
5	
6	
7	
4	
2	
3	
4	
6	
4	
5	
4	
10	
6	
13	
7	
12	
3	
6	
3	
10	
4	
8	
5	
3	
2	
7	
3	
5	
5	
9	
8	
7	
3	
5	
4	
1	
4	
9	
8	
7	
3	
3	
8	
6	
7	
9	
7	
5	
5	
4	
5	
2	
5	
5	
7	
8	
5	
4	
9	
9	
4	
4	
6	
1	
4	
6	
4	
2	
4	
11	
5	
3	
9	
2	
4	
4	
4	
2	
4	
5	
2	
4	
5	
5	
7	
2	
4	
5	
5	
6	
4	
3	
4	
3	
3	
3	
2	
7	
7	
4	
3	
3	
3	
5	
3	
8	
6	
2	
3	
1	
5	
4	
6	
4	
5	
6	
5	
3	
4	
6	
4	
3	
5	
5	
6	
5	
6	
4	
8	
3	
3	
3	
2	
4	
6	
3	
1	
3	
6	
4	
8	
5	
2	
7	
6	
7	
5	
4	
2	
7	
2	
2	
4	
4	
2	
8	
2	
6	
3	
3	
5	
6	
9	
5	
4	
7	
4	
6	
3	
2	
6	
5	
4	
7	
8	
4	
8	
6	
4	
3	
8	
4	
2	
8	
5	
5	
4	
7	
3	
2	
4	
8	
2	
4	
3	
3	
5	
6	
1	
3	
4	
7	
4	
5	
8	
4	
6	
5	
2	
6	
6	
4	
7	
5	
3	
6	
5	
7	
2	
6	
5	
5	
6	
6	
5	
4	
0	
12	
4	
7	
5	
3	
8	
6	
1	
3	
5	
2	
3	
2	
8	
4	
5	
6	
4	
4	
4	
5	
3	
2	
2	
11	
7	
7	
6	
5	
4	
5	
7	
6	
8	
4	
7	
7	
1	
0	
5	
4	
7	
5	
6	
6	
3	
7	
5	
7	
4	
6	
4	
3	
2	
8	
9	
4	
5	
1	
3	
4	
2	
3	
4	
6	
6	
5	
2	
5	
5	
4	
5	
7	
4	
6	
3	
4	
3	
3	
9	
5	
0	
5	
1	
5	
5	
3	
6	
7	
6	
6	
5	
6	
7	
2	
8	
6	
4	
5	
7	
3	
6	
7	
3	
4	
4	
3	
4	
2	
9	
3	
5	
3	
1	
8	
7	
7	
4	
7	
0	
3	
8	
3	
6	
6	
3	
5	
3	
8	
4	
2	
4	
8	
3	
5	
3	
5	
7	
4	
4	
5	
6	
11	
4	
4	
3	
4	
8	
7	
4	
5	
3	
4	
3	
4	
4	
4	
7	
4	
5	
7	
5	
3	
4	
3	
2	
7	
3	
7	
7	
2	
2	
2	
9	
10	
8	
6	
3	
4	
4	
1	
9	
3	
4	
0	
6	
1	
9	
6	
3	
6	
3	
6	
4	
5	
2	
5	
2	
3	
6	
7	
4	
3	
8	
1	
2	
4	
5	
0	
4	
8	
4	
2	
3	
7	
3	
5	
1	
4	
4	
2	
8	
5	
7	
3	
4	
6	
10	
11	
5	
6	
6	
3	
4	
2	
6	
3	
4	
2	
9	
1	
3	
2	
1	
4	
2	
4	
1	
7	
4	
3	
3	
5	
3	
2	
2	
2	
3	
2	
8	
5	
3	
3	
1	
0	
6	
3	
4	
2	
2	
5	
8	
5	
2	
3	
3	
6	
10	
4	
2	
9	
1	
7	
5	
7	
4	
5	
3	
9	
5	
4	
3	
6	
8	
5	
2	
2	
5	
4	
3	
6	
5	
3	
4	
3	
0	
5	
4	
4	
5	
4	
1	
3	
4	
3	
2	
1	
4	
6	
1	
9	
8	
5	
1	
2	
2	
8	
5	
1	
3	
4	
6	
6	
5	
3	
2	
3	
6	
6	
1	
7	
5	
2	
5	
7	
2	
4	
5	
5	
2	
4	
6	
4	
4	
3	
5	
5	
7	
5	
6	
6	
5	
4	
3	
2	
7	
2	
5	
6	
5	
7	
5	
1	
3	
9	
4	
2	
2	
6	
8	
5	
7	
3	
3	
2	
2	
1	
6	
4	
5	
5	
11	
3	
3	
7	
4	
5	
2	
2	
8	
2	
4	
1	
5	
2	
2	
3	
3	
5	
5	
10	
2	
3	
5	
2	
5	
5	
5	
3	
4	
4	
6	
4	
0	
2	
5	
5	
2	
4	
4	
2	
1	
4	
5	
5	
7	
7	
5	
6	
4	
4	
4	
2	
4	
4	
5	
4	
8	
6	
4	
1	
6	
8	
4	
4	
3	
6	
3	
8	
6	
4	
5	
7	
2	
2	
2	
8	
5	
3	
3	
5	
1	
4	
1	
4	
5	
5	
5	
5	
3	
5	
6	
3	
4	
4	
5	
7	
6	
5	
3	
3	
2	
3	
4	
5	
3	
4	
4	
4	
4	
6	
5	
2	
3	
8	
5	
6	
3	
6	
2	
4	
5	
7	
2	
2	
3	
11	
5	
2	
4	
5	
6	
1	
5	
5	
9	
6	
2	
3	
5	
2	
1	
4	
2	
0	
4	
5	
6	
2	
2	
4	
4	
3	
6	
2	
2	
5	
4	
3	
5	
2	
3	
1	
5	
4	
4	
6	
3	
4	
6	
4	
0	
11	
1	
3	
2	
0	
3	
3	
6	
3	
4	
4	
3	
6	
7	
6	
3	
6	
4	
3	
6	
2	
9	
2	
4	
8	
5	
6	
6	
7	
5	
4	
5	
1	
4	
4	
2	
4	
3	
3	
1	
4	
3	
0	
4	
2	
2	
6	
6	
4	
4	
10	
3	
9	
8	
7	
6	
1	
3	
6	
3	
4	
5	
1	
7	
2	
5	
9	
4	
4	
2	
6	
3	
3	
7	
3	
3	
1	
5	
2	
2	
5	
6	
6	
2	
4	
2	
2	
6	
5	
3	
4	
3	
5	
2	
0	
6	
3	
5	
1	
5	
2	
8	
6	
4	
2	
5	
3	
4	
6	
2	
1	
2	
0	
7	
4	
5	
5	
3	
3	
4	
0	
5	
6	
4	
3	
4	
4	
6	
1	
6	
5	
4	
5	
3	
5	
6	
2	
1	
2	
3	
3	
0	
6	
1	
6	
2	
6	
1	
6	
2	
5	
3	
3	
2	
4	
3	
5	
5	
6	
4	
1	
5	
5	
5	
2	
6	
2	
3	
5	
2	
7	
3	
2	
3	
2	
5	
3	
2	
3	
3	
3	
2	
3	
3	
5	
1	
3	
3	
4	
4	
9	
6	
4	
4	
7	
4	
2	
7	
4	
7	
2	
4	
6	
7	
3	
4	
5	
2	
5	
2	
4	
5	
2	
8	
6	
4	
4	
5	
6	
3	
1	
1	
3	
6	
6	
5	
4	
2	
1	
6	
3	
3	
2	
4	
7	
3	
5	
4	
3	
1	
3	
8	
4	
4	
4	
3	
3	
5	
4	
4	
1	
4	
2	
6	
5	
3	
0	
7	
5	
6	
1	
2	
3	
3	
4	
4	
4	
7	
2	
5	
3	
3	
1	
3	
5	
5	
11	
2	
2	
3	
2	
4	
3	
5	
4	
5	
2	
5	
2	
8	
6	
3	
2	
7	
4	
5	
9	
5	
5	
3	
3	
5	
3	
4	
4	
2	
7	
3	
4	
3	
3	
2	
7	
1	
4	
5	
5	
3	
3	
0	
6	
3	
2	
2	
1	
3	
5	
5	
2	
4	
1	
5	
2	
6	
4	
2	
3	
4	
5	
1	
3	
6	
2	
3	
3	
1	
8	
5	
5	
2	
9	
0	
9	
3	
4	
3	
2	
3	
7	
4	
0	
4	
4	
1	
6	
5	
2	
5	
5	
2	
7	
4	
3	
4	
4	
2	
2	
5	
4	
1	
4	
1	
6	
1	
4	
5	
6	
3	
3	
8	
5	
8	
3	
5	
0	
4	
3	
2	
7	
4	
2	
7	
4	
5	
6	
2	
4	
4	
0	
3	
2	
6	
4	
7	
5	
4	
1	
5	
2	
3	
3	
3	
5	
3	
2	
3	
4	
3	
6	
5	
2	
1	
3	
4	
3	
4	
6	
3	
5	
3	
5	
4	
2	
4	
5	
3	
6	
4	
2	
4	
3	
2	
2	
5	
4	
5	
4	
6	
5	
2	
3	
2	
3	
4	
7	
2	
3	
3	
3	
3	
1	
2	
7	
4	
2	
3	
2	
2	
1	
6	
6	
1	
2	
3	
3	
7	
3	
4	
4	
4	
2	
5	
6	
2	
2	
2	
3	
3	
2	
3	
4	
2	
1	
2	
3	
1	
2	
2	
9	
5	
0	
3	
2	
3	
4	
3	
1	
3	
5	
3	
3	
2	
4	
3	
5	
3	
10	
4	
5	
5	
6	
3	
3	
2	
1	
5	
2	
2	
2	
4	
3	
6	
2	
4	
1	
6	
3	
4	
3	
4	
2	
2	
5	
7	
1	
4	
0	
4	
2	
4	
4	
1	
7	
6	
7	
7	
3	
3	
3	
1	
1	
5	
3	
4	
2	
1	
5	
3	
4	
3	
4	
1	
3	
3	
2	
3	
2	
2	
1	
2	
3	
5	
7	
4	
3	
2	
3	
2	
4	
1	
1	
4	
4	
3	
2	
4	
3	
2	
3	
1	
6	
3	
3	
3	
3	
8	
2	
6	
3	
7	
8	
4	
4	
3	
1	
4	
2	
5	
4	
3	
1	
3	
2	
5	
1	
4	
2	
4	
3	
2	
1	
2	
5	
9	
7	
4	
6	
6	
4	
4	
1	
1	
1	
2	
3	
4	
3	
8	
4	
3	
3	
5	
4	
4	
4	
4	
5	
4	
5	
4	
3	
5	
7	
1	
1	
4	
7	
4	
5	
8	
3	
7	
2	
4	
1	
5	
4	
8	
8	
3	
2	
1	
2	
5	
6	
2	
5	
3	
4	
1	
5	
3	
0	
1	
6	
1	
2	
5	
6	
1	
4	
3	
1	
3	
1	
3	
3	
3	
4	
3	
6	
2	
3	
0	
1	
2	
4	
2	
5	
4	
2	
2	
2	
4	
2	
5	
3	
1	
2	
7	
2	
4	
5	
3	
2	
5	
3	
6	
3	
5	
5	
4	
3	
3	
2	
2	
2	
5	
2	
3	
2	
4	
6	
1	
3	
4	
1	
4	
1	
4	
3	
2	
3	
0	
4	
4	
3	
0	
3	
6	
6	
3	
4	
2	
0	
0	
2	
4	
4	
2	
6	
8	
1	
2	
4	
2	
2	
4	
8	
1	
3	
8	
2	
3	
4	
3	
4	
0	
1	
1	
4	
4	
4	
6	
3	
5	
4	
5	
2	
6	
2	
4	
5	
1	
0	
6	
2	
2	
2	
4	
4	
1	
1	
1	
3	
1	
0	
1	
0	
4	
4	
2	
5	
1	
0	
2	
1	
4	
2	
4	
5	
2	
2	
2	
2	
2	
2	
5	
5	
3	
1	
2	
4	
1	
5	
5	
6	
2	
3	
3	
1	
4	
2	
4	
3	
4	
5	
3	
7	
1	
1	
3	
3	
1	
1	
3	
5	
6	
4	
3	
5	
3	
1	
3	
4	
1	
3	
2	
4	
3	
0	
2	
0	
4	
2	
2	
2	
3	
3	
3	
2	
3	
3	
3	
3	
0	
2	
3	
3	
6	
4	
3	
3	
2	
0	
4	
2	
8	
4	
5	
3	
6	
2	
3	
2	
1	
4	
6	
1	
4	
7	
2	
3	
2	
4	
6	
2	
4	
3	
6	
3	
2	
5	
4	
5	
3	
2	
1	
5	
4	
1	
1	
2	
5	
3	
4	
1	
3	
4	
3	
4	
5	
6	
3	
1	
3	
3	
5	
2	
3	
3	
2	
3	
0	
2	
7	
0	
5	
3	
5	
8	
4	
1	
5	
2	
3	
4	
4	
2	
5	
1	
6	
1	
2	
6	
2	
0	
1	
3	
4	
4	
3	
3	
7	
2	
1	
3	
2	
3	
7	
4	
1	
4	
4	
2	
4	
4	
3	
4	
4	
3	
1	
1	
2	
2	
3	
4	
6	
6	
3	
1	
3	
0	
3	
1	
3	
2	
4	
3	
5	
4	
4	
3	
3	
2	
5	
2	
4	
2	
0	
0	
3	
2	
1	
6	
1	
7	
1	
2	
2	
2	
2	
5	
1	
2	
5	
2	
2	
3	
1	
2	
1	
3	
2	
2	
5	
1	
5	
2	
3	
1	
5	
4	
4	
3	
2	
1	
1	
3	
2	
2	
2	
2	
8	
3	
2	
1	
2	
2	
7	
4	
1	
4	
4	
3	
7	
3	
3	
5	
1	
0	
2	
0	
4	
1	
1	
0	
5	
3	
1	
1	
1	
3	
3	
3	
5	
0	
2	
6	
1	
1	
2	
1	
3	
5	
3	
3	
3	
1	
1	
0	
4	
2	
2	
4	
2	
5	
6	
4	
2	
1	
4	
1	
2	
1	
3	
3	
3	
5	
4	
6	
5	
2	
6	
3	
2	
2	
3	
5	
6	
6	
0	
3	
3	
3	
4	
2	
5	
4	
3	
3	
3	
5	
2	
3	
3	
3	
2	
2	
4	
1	
3	
6	
3	
1	
1	
5	
4	
3	
6	
1	
3	
0	
5	
6	
0	
4	
1	
3	
5	
3	
2	
6	
2	
4	
7	
6	
0	
3	
3	
4	
3	
3	
3	
2	
2	
2	
3	
2	
5	
3	
0	
1	
5	
1	
5	
4	
3	
4	
7	
5	
4	
4	
2	
5	
4	
2	
3	
1	
1	
0	
3	
1	
3	
2	
4	
3	
4	
1	
3	
0	
4	
6	
2	
0	
6	
2	
7	
0	
4	
3	
4	
2	
2	
3	
4	
2	
4	
2	
3	
1	
5	
2	
3	
5	
4	
4	
5	
3	
1	
2	
9	
5	
6	
3	
1	
2	
3	
3	
5	
2	
2	
2	
2	
3	
2	
5	
3	
2	
3	
4	
3	
1	
2	
0	
2	
3	
1	
2	
8	
3	
2	
2	
3	
1	
3	
0	
4	
2	
5	
3	
2	
3	
2	
4	
3	
4	
3	
0	
6	
3	
4	
6	
6	
0	
5	
6	
2	
5	
3	
2	
3	
4	
2	
3	
1	
0	
3	
5	
1	
9	
0	
3	
3	
6	
3	
0	
2	
2	
3	
3	
3	
1	
2	
5	
4	
6	
1	
0	
1	
1	
4	
4	
4	
5	
1	
5	
3	
3	
2	
2	
3	
1	
0	
1	
5	
3	
2	
2	
1	
1	
4	
5	
3	
2	
2	
2	
3	
3	
3	
2	
1	
3	
2	
3	
2	
3	
4	
3	
3	
3	
2	
2	
7	
2	
1	
4	
1	
3	
3	
2	
1	
3	
2	
3	
2	
2	
4	
3	
2	
2	
2	
3	
3	
2	
2	
1	
1	
1	
3	
2	
4	
5	
5	
1	
3	
1	
5	
3	
2	
2	
1	
2	
1	
6	
7	
4	
1	
5	
2	
4	
3	
3	
1	
1	
2	
5	
4	
1	
5	
3	
1	
3	
4	
2	
1	
3	
2	
6	
3	
5	
3	
4	
6	
1	
3	
2	
4	
2	
2	
3	
3	
4	
1	
4	
0	
2	
4	
3	
4	
4	
5	
0	
3	
4	
7	
2	
1	
3	
2	
2	
4	
2	
3	
1	
4	
3	
1	
2	
1	
6	
2	
2	
2	
2	
5	
5	
3	
3	
4	
4	
7	
5	
3	
2	
2	
4	
6	
4	
3	
2	
4	
2	
2	
4	
5	
3	
1	
3	
4	
3	
2	
1	
5	
5	
0	
1	
2	
6	
3	
4	
3	
1	
7	
4	
2	
1	
3	
5	
3	
2	
5	
2	
4	
4	
0	
2	
1	
2	
4	
3	
3	
3	
6	
6	
1	
5	
4	
2	
2	
3	
3	
3	
3	
2	
0	
2	
3	
2	
4	
3	
3	
4	
1	
3	
3	
3	
8	
2	
2	
3	
3	
3	
4	
2	
1	
1	
2	
1	
0	
3	
5	
2	
1	
5	
2	
5	
3	
2	
1	
3	
1	
2	
1	
2	
2	
1	
0	
3	
2	
3	
4	
5	
0	
3	
1	
4	
1	
3	
3	
6	
2	
2	
3	
2	
5	
3	
2	
4	
4	
5	
2	
4	
2	
2	
2	
4	
4	
1	
4	
6	
7	
6	
0	
2	
5	
7	
4	
3	
4	
3	
2	
3	
3	
4	
3	
5	
3	
1	
4	
2	
2	
4	
1	
1	
4	
1	
2	
3	
3	
4	
2	
3	
1	
3	
1	
4	
5	
3	
2	
1	
4	
1	
3	
0	
0	
2	
3	
2	
1	
5	
3	
1	
1	
3	
3	
3	
4	
1	
3	
2	
1	
1	
1	
2	
1	
1	
5	
2	
2	
4	
3	
2	
5	
2	
0	
4	
2	
3	
3	
4	
1	
3	
3	
2	
1	
11	
4	
5	
0	
2	
4	
3	
5	
1	
1	
5	
4	
2	
2	
8	
5	
3	
2	
2	
6	
2	
1	
4	
2	
4	
2	
1	
2	
3	
1	
3	
2	
4	
3	
6	
5	
3	
2	
1	
4	
3	
4	
4	
1	
4	
4	
1	
3	
1	
2	
3	
1	
1	
3	
4	
4	
5	
1	
3	
3	
0	
3	
5	
5	
1	
3	
3	
3	
2	
1	
1	
3	
1	
2	
1	
6	
3	
2	
1	
1	
6	
4	
1	
2	
0	
0	
0	
0	
0	
0	
0	
0	
0	
0	
0	
0	
0	
0	
0	
0	
0	
0	
0	
