#PicoHarp 300  Histogram Data			04/28/2022 04:36:21 PM
#channels per curve
31250
#display curve no.
0	
#memory block no.
0	
#ns/channel
0.0320	
#counts
1	
0	
1	
1	
2	
0	
1	
1	
1	
0	
1	
1	
1	
0	
0	
1	
1	
1	
0	
0	
1	
0	
0	
0	
1	
2	
0	
0	
2	
0	
0	
0	
0	
1	
1	
1	
1	
0	
2	
2	
0	
0	
2	
0	
0	
0	
0	
2	
2	
0	
2	
0	
0	
1	
0	
0	
1	
0	
0	
1	
0	
0	
0	
0	
1	
0	
1	
0	
2	
1	
0	
1	
2	
0	
1	
0	
2	
1	
0	
0	
1	
0	
1	
2	
2	
0	
0	
0	
1	
0	
0	
1	
1	
1	
2	
0	
1	
0	
0	
1	
0	
0	
0	
1	
0	
1	
0	
0	
1	
0	
0	
1	
0	
0	
0	
0	
0	
0	
0	
1	
0	
0	
2	
0	
1	
1	
0	
0	
0	
1	
0	
0	
0	
1	
0	
0	
1	
0	
1	
0	
1	
1	
0	
0	
0	
1	
0	
1	
0	
0	
1	
0	
0	
0	
1	
1	
0	
0	
0	
0	
0	
0	
2	
1	
0	
0	
1	
1	
0	
0	
0	
0	
1	
1	
0	
0	
0	
0	
0	
0	
1	
1	
0	
0	
1	
0	
1	
0	
1	
1	
0	
3	
0	
0	
0	
2	
0	
0	
1	
1	
0	
0	
2	
0	
1	
0	
1	
1	
0	
1	
0	
0	
0	
1	
0	
0	
0	
1	
0	
0	
1	
0	
0	
1	
0	
0	
1	
0	
2	
0	
0	
0	
1	
0	
0	
0	
1	
0	
1	
2	
0	
0	
0	
1	
1	
2	
0	
1	
1	
1	
0	
0	
1	
1	
0	
0	
0	
1	
0	
0	
1	
0	
0	
1	
0	
1	
1	
0	
0	
0	
1	
0	
0	
1	
0	
1	
0	
0	
0	
0	
0	
2	
1	
0	
4	
2	
1	
0	
0	
1	
0	
0	
0	
1	
0	
0	
0	
1	
0	
1	
0	
0	
2	
1	
1	
2	
1	
0	
1	
0	
0	
1	
0	
0	
0	
0	
1	
0	
0	
1	
1	
0	
2	
0	
0	
0	
0	
0	
0	
1	
0	
0	
0	
1	
0	
0	
1	
1	
0	
0	
1	
0	
0	
0	
2	
1	
0	
0	
1	
0	
0	
0	
0	
0	
0	
2	
0	
0	
1	
0	
1	
0	
0	
1	
0	
0	
0	
2	
4	
0	
0	
1	
2	
0	
0	
0	
1	
0	
2	
0	
0	
0	
0	
2	
0	
0	
2	
0	
0	
0	
0	
0	
1	
0	
1	
0	
0	
1	
0	
0	
1	
1	
1	
0	
0	
0	
0	
0	
1	
0	
0	
1	
0	
0	
0	
1	
1	
0	
1	
1	
1	
0	
1	
0	
0	
2	
0	
1	
0	
0	
1	
2	
0	
1	
2	
0	
0	
0	
0	
0	
0	
0	
0	
0	
0	
1	
2	
1	
0	
0	
1	
0	
0	
0	
0	
1	
0	
2	
1	
1	
3	
0	
1	
2	
1	
1	
1	
0	
0	
1	
0	
1	
1	
0	
0	
0	
0	
0	
1	
0	
1	
2	
1	
0	
1	
0	
0	
0	
1	
1	
1	
0	
1	
0	
0	
1	
1	
0	
0	
1	
1	
0	
1	
0	
1	
2	
1	
0	
1	
1	
1	
0	
0	
0	
0	
0	
2	
0	
1	
0	
1	
0	
1	
0	
0	
0	
0	
0	
1	
0	
0	
0	
1	
2	
0	
1	
1	
0	
0	
0	
0	
0	
1	
0	
0	
0	
0	
0	
2	
1	
1	
0	
1	
1	
0	
0	
0	
0	
0	
0	
0	
0	
1	
0	
1	
0	
1	
0	
0	
1	
1	
1	
0	
2	
1	
0	
0	
0	
0	
0	
1	
0	
1	
2	
1	
0	
0	
0	
0	
0	
2	
2	
1	
2	
0	
2	
1	
0	
0	
0	
1	
1	
1	
0	
2	
0	
2	
1	
1	
0	
0	
0	
0	
0	
1	
1	
0	
1	
0	
0	
2	
0	
0	
0	
1	
2	
0	
0	
0	
0	
0	
0	
0	
0	
0	
3	
1	
0	
0	
0	
1	
0	
0	
2	
2	
0	
0	
0	
2	
0	
0	
1	
0	
0	
0	
0	
0	
0	
1	
1	
0	
0	
0	
0	
0	
0	
0	
0	
1	
0	
0	
0	
1	
1	
0	
0	
0	
0	
0	
0	
2	
0	
0	
0	
0	
0	
0	
0	
0	
0	
0	
0	
0	
0	
0	
1	
1	
0	
0	
1	
0	
2	
1	
1	
0	
0	
0	
1	
0	
0	
1	
1	
1	
0	
1	
0	
0	
2	
0	
0	
1	
0	
0	
0	
0	
0	
0	
0	
0	
0	
0	
0	
1	
0	
0	
0	
1	
0	
0	
0	
2	
1	
0	
1	
1	
0	
0	
1	
0	
0	
0	
1	
0	
0	
0	
0	
1	
0	
0	
0	
0	
1	
1	
0	
0	
0	
0	
0	
0	
2	
1	
1	
1	
0	
0	
2	
2	
0	
0	
0	
0	
0	
2	
1	
0	
1	
0	
0	
1	
1	
2	
1	
1	
1	
1	
0	
1	
0	
0	
2	
2	
0	
0	
0	
0	
1	
1	
0	
0	
0	
0	
0	
0	
3	
1	
1	
0	
0	
0	
0	
1	
0	
0	
0	
2	
0	
0	
0	
0	
0	
0	
2	
0	
1	
0	
0	
0	
2	
1	
1	
1	
1	
0	
0	
0	
0	
0	
0	
0	
0	
0	
0	
0	
0	
0	
0	
0	
0	
0	
0	
0	
0	
0	
1	
0	
0	
1	
0	
2	
1	
0	
1	
2	
0	
0	
1	
0	
0	
1	
0	
0	
0	
0	
0	
1	
1	
0	
1	
0	
0	
0	
0	
0	
1	
0	
0	
0	
0	
0	
0	
1	
1	
0	
0	
0	
0	
0	
0	
0	
3	
0	
1	
0	
1	
1	
2	
0	
1	
1	
2	
1	
1	
1	
0	
0	
1	
0	
0	
0	
0	
0	
1	
0	
0	
1	
1	
0	
1	
2	
1	
0	
0	
0	
1	
1	
1	
1	
0	
0	
0	
0	
1	
0	
2	
0	
0	
4	
1	
0	
0	
1	
0	
1	
2	
2	
0	
3	
0	
1	
0	
3	
0	
1	
6	
4	
5	
3	
3	
6	
1	
7	
9	
8	
6	
11	
12	
15	
19	
17	
11	
17	
15	
24	
24	
24	
23	
24	
20	
20	
21	
22	
22	
19	
23	
32	
14	
17	
12	
7	
20	
24	
12	
8	
11	
14	
11	
11	
4	
7	
8	
7	
12	
11	
3	
5	
10	
11	
3	
6	
1	
4	
4	
7	
5	
4	
0	
5	
6	
7	
4	
1	
4	
4	
1	
3	
6	
3	
2	
3	
1	
3	
6	
8	
2	
3	
5	
1	
3	
6	
7	
4	
3	
4	
4	
4	
11	
1	
2	
1	
2	
3	
2	
1	
2	
3	
2	
5	
0	
1	
4	
5	
4	
3	
4	
3	
3	
3	
3	
1	
3	
2	
5	
2	
0	
0	
3	
2	
3	
3	
0	
4	
0	
5	
3	
2	
3	
1	
1	
2	
2	
1	
2	
1	
4	
4	
1	
1	
4	
2	
2	
0	
1	
2	
3	
2	
4	
3	
2	
2	
5	
4	
2	
2	
3	
4	
1	
2	
2	
6	
1	
4	
2	
2	
5	
2	
2	
2	
1	
1	
1	
3	
1	
3	
3	
1	
8	
1	
2	
0	
1	
8	
5	
2	
4	
2	
4	
2	
1	
3	
1	
1	
5	
3	
6	
1	
4	
2	
4	
3	
2	
3	
3	
3	
0	
4	
3	
2	
2	
1	
3	
0	
5	
1	
5	
3	
0	
1	
0	
3	
0	
2	
4	
6	
3	
1	
3	
1	
2	
2	
3	
5	
4	
1	
3	
1	
1	
2	
4	
0	
1	
2	
3	
1	
1	
6	
1	
3	
2	
2	
2	
1	
4	
2	
1	
1	
2	
0	
3	
3	
5	
0	
2	
1	
3	
3	
3	
3	
3	
2	
1	
2	
5	
2	
7	
3	
1	
3	
3	
4	
2	
2	
2	
2	
1	
2	
2	
2	
4	
5	
2	
4	
1	
2	
0	
4	
0	
0	
1	
2	
1	
3	
1	
0	
0	
4	
4	
3	
4	
4	
2	
6	
0	
1	
2	
2	
1	
1	
4	
0	
4	
3	
3	
1	
1	
2	
1	
3	
1	
0	
2	
4	
3	
3	
3	
3	
1	
4	
3	
0	
1	
3	
0	
1	
2	
0	
2	
1	
4	
1	
0	
3	
1	
4	
3	
5	
1	
5	
4	
0	
0	
1	
2	
5	
3	
2	
4	
2	
2	
6	
3	
2	
2	
2	
4	
2	
3	
3	
1	
4	
3	
7	
2	
5	
0	
2	
0	
4	
4	
2	
2	
3	
1	
3	
3	
0	
3	
3	
2	
1	
2	
2	
3	
3	
3	
2	
2	
1	
1	
3	
0	
2	
1	
0	
1	
0	
1	
1	
3	
2	
3	
2	
2	
0	
5	
6	
0	
1	
2	
2	
5	
0	
2	
5	
3	
1	
5	
4	
1	
3	
5	
2	
2	
2	
4	
2	
2	
2	
2	
3	
3	
2	
0	
1	
1	
1	
2	
1	
1	
1	
1	
5	
2	
3	
4	
2	
2	
1	
2	
3	
1	
2	
2	
2	
1	
3	
1	
3	
2	
1	
3	
1	
2	
3	
1	
0	
3	
1	
1	
0	
1	
2	
4	
3	
1	
2	
3	
1	
0	
1	
0	
2	
3	
0	
2	
1	
2	
4	
1	
4	
1	
2	
3	
0	
1	
0	
5	
1	
3	
2	
0	
1	
2	
2	
2	
1	
2	
2	
4	
2	
5	
0	
3	
2	
0	
0	
2	
2	
1	
0	
2	
1	
1	
2	
2	
1	
3	
3	
2	
2	
2	
2	
1	
2	
1	
2	
0	
2	
0	
2	
1	
1	
3	
3	
1	
1	
3	
1	
3	
3	
3	
1	
2	
0	
0	
3	
1	
2	
2	
1	
2	
1	
3	
2	
2	
3	
1	
2	
2	
2	
1	
0	
3	
2	
3	
2	
1	
1	
1	
1	
2	
2	
3	
3	
0	
1	
2	
3	
1	
2	
2	
1	
1	
2	
1	
2	
0	
2	
2	
3	
2	
2	
0	
3	
3	
1	
4	
2	
3	
0	
2	
2	
3	
2	
3	
0	
0	
1	
2	
3	
0	
2	
1	
1	
0	
1	
2	
0	
2	
2	
2	
2	
2	
0	
0	
2	
1	
4	
2	
5	
2	
0	
2	
3	
2	
1	
1	
3	
4	
1	
1	
1	
1	
4	
0	
3	
0	
2	
0	
1	
1	
1	
2	
0	
2	
2	
4	
1	
1	
2	
0	
2	
3	
0	
2	
1	
2	
1	
2	
1	
1	
0	
1	
1	
1	
3	
0	
3	
1	
0	
3	
0	
2	
1	
1	
0	
2	
2	
1	
1	
1	
1	
1	
3	
4	
5	
2	
1	
1	
2	
0	
3	
3	
1	
2	
3	
0	
3	
3	
3	
1	
4	
0	
0	
4	
2	
1	
1	
2	
2	
0	
0	
0	
1	
2	
3	
1	
0	
2	
3	
0	
1	
4	
0	
1	
2	
2	
3	
1	
2	
1	
3	
2	
2	
2	
2	
3	
1	
3	
2	
3	
1	
4	
1	
3	
4	
1	
0	
2	
1	
0	
2	
1	
1	
2	
2	
0	
1	
2	
3	
2	
1	
2	
2	
3	
2	
1	
2	
2	
3	
3	
2	
2	
3	
1	
1	
2	
0	
1	
2	
2	
3	
4	
2	
5	
0	
1	
1	
0	
3	
0	
2	
2	
3	
1	
1	
1	
2	
2	
7	
0	
0	
3	
4	
3	
2	
2	
1	
1	
0	
3	
2	
3	
2	
4	
0	
1	
0	
3	
3	
1	
0	
4	
2	
1	
0	
1	
3	
1	
3	
2	
1	
0	
4	
0	
4	
2	
1	
1	
3	
2	
1	
3	
0	
2	
2	
1	
0	
3	
3	
3	
0	
0	
0	
2	
2	
3	
1	
2	
2	
0	
3	
2	
1	
0	
0	
4	
0	
2	
2	
1	
2	
2	
3	
0	
0	
0	
6	
2	
2	
2	
0	
0	
3	
2	
2	
3	
2	
1	
2	
2	
0	
0	
2	
0	
0	
0	
1	
1	
2	
0	
0	
1	
1	
2	
1	
1	
0	
3	
0	
1	
1	
3	
1	
1	
1	
1	
2	
2	
3	
5	
1	
3	
1	
2	
5	
0	
1	
2	
2	
1	
1	
1	
1	
0	
2	
1	
0	
2	
0	
1	
1	
0	
2	
0	
3	
0	
3	
4	
1	
1	
1	
0	
1	
1	
0	
1	
4	
2	
0	
0	
2	
3	
3	
2	
2	
0	
0	
1	
2	
0	
0	
0	
0	
1	
1	
2	
1	
1	
0	
1	
2	
3	
3	
0	
1	
0	
0	
1	
3	
3	
2	
1	
0	
2	
3	
2	
3	
2	
3	
2	
1	
1	
1	
1	
1	
0	
6	
2	
2	
3	
1	
0	
0	
1	
2	
1	
1	
0	
3	
0	
3	
3	
0	
0	
0	
7	
1	
1	
1	
2	
1	
1	
1	
3	
1	
2	
2	
2	
0	
0	
0	
1	
0	
0	
0	
2	
1	
1	
1	
5	
0	
2	
1	
3	
1	
1	
0	
3	
0	
3	
1	
1	
3	
1	
1	
0	
2	
2	
2	
1	
3	
2	
2	
2	
0	
2	
1	
1	
2	
1	
1	
1	
1	
2	
1	
3	
0	
1	
1	
3	
0	
2	
3	
3	
2	
1	
0	
0	
0	
1	
1	
3	
4	
2	
0	
2	
3	
2	
3	
2	
2	
5	
1	
0	
1	
1	
0	
3	
4	
1	
0	
0	
3	
1	
3	
0	
1	
6	
1	
2	
0	
1	
1	
2	
1	
1	
1	
1	
0	
1	
0	
1	
2	
0	
0	
1	
0	
1	
3	
0	
3	
1	
1	
3	
0	
1	
1	
3	
3	
0	
2	
1	
1	
0	
2	
0	
2	
0	
2	
1	
0	
1	
2	
5	
1	
0	
0	
1	
2	
2	
2	
0	
1	
2	
1	
0	
0	
0	
0	
1	
1	
3	
0	
1	
0	
1	
1	
2	
1	
0	
3	
2	
2	
1	
2	
1	
1	
0	
3	
0	
5	
3	
1	
5	
1	
2	
2	
0	
0	
1	
3	
0	
0	
2	
2	
2	
1	
0	
0	
3	
1	
1	
3	
0	
2	
0	
0	
0	
0	
2	
0	
1	
2	
2	
2	
2	
1	
0	
0	
0	
0	
0	
1	
1	
3	
2	
0	
6	
6	
2	
1	
0	
1	
0	
2	
2	
1	
1	
3	
2	
2	
4	
2	
1	
0	
2	
3	
0	
1	
0	
0	
2	
1	
1	
2	
2	
2	
1	
1	
1	
1	
0	
1	
1	
1	
1	
0	
1	
2	
2	
0	
2	
2	
4	
1	
2	
1	
2	
0	
2	
2	
0	
1	
0	
3	
2	
3	
0	
0	
2	
3	
0	
3	
2	
0	
2	
1	
2	
1	
2	
0	
2	
2	
1	
1	
2	
3	
3	
2	
1	
1	
1	
1	
3	
1	
2	
1	
3	
2	
2	
0	
0	
1	
2	
0	
1	
1	
3	
0	
2	
0	
2	
1	
1	
3	
0	
1	
0	
3	
2	
1	
2	
0	
0	
1	
0	
2	
1	
0	
1	
1	
0	
1	
1	
0	
1	
2	
1	
1	
0	
0	
3	
1	
2	
1	
0	
1	
2	
1	
2	
2	
2	
1	
0	
1	
2	
0	
1	
0	
2	
2	
0	
2	
2	
2	
1	
0	
2	
1	
2	
0	
5	
2	
1	
1	
1	
0	
0	
4	
1	
0	
1	
1	
3	
2	
1	
0	
2	
2	
0	
1	
1	
0	
2	
0	
0	
2	
2	
0	
0	
0	
0	
2	
0	
1	
3	
2	
1	
1	
2	
3	
2	
0	
0	
1	
0	
2	
2	
1	
1	
2	
3	
2	
2	
2	
1	
1	
0	
2	
4	
2	
1	
4	
1	
2	
0	
2	
6	
4	
1	
3	
2	
1	
2	
1	
1	
2	
6	
1	
2	
1	
3	
1	
1	
1	
1	
2	
0	
1	
2	
2	
1	
0	
0	
1	
1	
3	
3	
0	
2	
0	
0	
2	
0	
0	
0	
0	
2	
1	
2	
0	
0	
2	
0	
1	
0	
2	
1	
1	
1	
0	
0	
0	
0	
0	
0	
1	
3	
1	
0	
1	
2	
5	
0	
3	
1	
1	
1	
1	
1	
1	
1	
0	
0	
2	
2	
1	
0	
2	
0	
1	
0	
0	
0	
2	
1	
0	
2	
0	
0	
1	
2	
0	
1	
0	
3	
1	
4	
1	
1	
0	
0	
4	
1	
1	
0	
0	
2	
1	
3	
0	
0	
0	
0	
1	
1	
2	
0	
6	
1	
1	
0	
1	
1	
0	
0	
3	
1	
1	
2	
1	
0	
1	
1	
0	
0	
1	
1	
2	
1	
2	
0	
1	
0	
1	
2	
0	
0	
1	
1	
3	
2	
1	
0	
1	
1	
4	
1	
3	
1	
1	
0	
4	
0	
0	
0	
2	
0	
2	
0	
2	
1	
0	
1	
1	
1	
0	
3	
1	
1	
1	
2	
3	
3	
0	
1	
0	
0	
2	
0	
2	
0	
1	
0	
0	
2	
1	
0	
1	
2	
3	
3	
1	
1	
1	
0	
1	
1	
4	
3	
2	
1	
2	
1	
0	
1	
4	
1	
1	
3	
0	
0	
0	
0	
6	
1	
0	
0	
0	
1	
0	
1	
2	
2	
1	
0	
3	
1	
0	
0	
0	
1	
3	
0	
1	
0	
3	
2	
0	
1	
1	
0	
0	
2	
0	
2	
0	
1	
1	
1	
1	
2	
0	
2	
2	
1	
0	
2	
2	
0	
0	
1	
0	
2	
2	
0	
1	
1	
1	
2	
1	
1	
3	
0	
1	
0	
3	
0	
0	
0	
3	
0	
2	
1	
0	
1	
1	
0	
1	
1	
3	
1	
2	
0	
4	
1	
1	
0	
3	
0	
0	
2	
2	
2	
0	
0	
2	
0	
0	
1	
3	
0	
0	
1	
0	
0	
1	
1	
1	
1	
1	
1	
0	
2	
1	
0	
1	
1	
1	
1	
1	
0	
1	
1	
3	
2	
2	
0	
0	
0	
1	
0	
3	
2	
1	
0	
2	
0	
1	
0	
2	
1	
3	
3	
0	
0	
1	
1	
1	
0	
2	
2	
2	
0	
1	
0	
3	
2	
2	
2	
1	
0	
4	
1	
2	
1	
2	
1	
2	
0	
0	
0	
0	
0	
0	
1	
3	
3	
1	
0	
1	
1	
0	
0	
0	
2	
2	
1	
2	
1	
2	
1	
0	
0	
1	
0	
3	
1	
1	
0	
1	
0	
2	
0	
0	
3	
1	
1	
0	
0	
2	
2	
0	
0	
1	
2	
4	
1	
2	
4	
2	
1	
1	
0	
3	
1	
0	
0	
0	
2	
0	
0	
0	
1	
1	
3	
1	
0	
0	
4	
0	
2	
1	
2	
2	
3	
3	
2	
1	
2	
0	
4	
2	
1	
0	
2	
2	
2	
1	
0	
1	
3	
3	
1	
1	
1	
1	
1	
0	
1	
0	
2	
0	
2	
1	
1	
1	
0	
1	
0	
1	
1	
1	
0	
0	
1	
1	
0	
3	
1	
1	
1	
0	
1	
1	
2	
2	
1	
1	
0	
1	
1	
3	
2	
0	
2	
1	
0	
2	
1	
1	
3	
1	
0	
0	
1	
2	
3	
3	
1	
2	
1	
0	
0	
1	
1	
3	
1	
0	
0	
0	
0	
0	
4	
1	
1	
0	
2	
0	
2	
0	
0	
1	
0	
2	
0	
2	
0	
0	
3	
2	
0	
4	
2	
1	
1	
3	
0	
0	
1	
2	
0	
0	
3	
0	
2	
0	
1	
1	
1	
2	
1	
0	
1	
1	
0	
2	
2	
1	
3	
2	
2	
2	
0	
2	
3	
1	
1	
3	
0	
1	
0	
0	
0	
0	
0	
2	
0	
2	
0	
2	
2	
0	
0	
1	
2	
1	
0	
2	
0	
0	
2	
3	
0	
1	
0	
0	
2	
1	
0	
1	
3	
0	
0	
1	
0	
0	
2	
1	
1	
1	
1	
0	
3	
1	
2	
0	
2	
0	
2	
3	
1	
0	
2	
1	
1	
1	
2	
1	
2	
0	
1	
0	
0	
5	
1	
1	
4	
0	
1	
0	
1	
0	
0	
1	
0	
0	
1	
1	
1	
1	
1	
2	
1	
1	
3	
1	
1	
1	
0	
0	
1	
1	
1	
2	
1	
2	
1	
1	
1	
0	
2	
1	
0	
0	
3	
0	
0	
2	
1	
0	
2	
0	
3	
0	
0	
0	
0	
3	
2	
3	
1	
0	
1	
1	
0	
0	
0	
0	
2	
0	
0	
2	
2	
1	
1	
1	
3	
2	
0	
2	
2	
2	
0	
0	
1	
2	
0	
1	
0	
1	
0	
0	
0	
0	
5	
1	
0	
2	
1	
3	
2	
1	
0	
1	
1	
0	
1	
0	
2	
1	
0	
1	
1	
2	
0	
0	
1	
0	
0	
0	
2	
0	
0	
2	
5	
1	
1	
0	
0	
1	
1	
1	
3	
2	
1	
0	
2	
0	
1	
2	
1	
1	
3	
0	
1	
0	
0	
2	
1	
0	
0	
5	
1	
0	
0	
0	
0	
0	
0	
3	
0	
0	
0	
0	
1	
0	
1	
1	
3	
1	
1	
0	
2	
6	
1	
1	
1	
0	
2	
0	
2	
0	
1	
2	
0	
0	
2	
1	
1	
1	
2	
2	
1	
0	
1	
0	
1	
2	
1	
1	
2	
0	
0	
0	
0	
1	
1	
2	
2	
1	
3	
0	
0	
1	
1	
0	
0	
1	
2	
1	
0	
1	
1	
2	
1	
1	
1	
3	
1	
2	
1	
1	
1	
0	
1	
0	
1	
0	
0	
2	
1	
3	
0	
0	
1	
1	
1	
0	
0	
1	
3	
1	
1	
1	
1	
0	
0	
4	
1	
3	
0	
1	
2	
1	
1	
1	
1	
1	
0	
3	
0	
0	
0	
0	
1	
1	
0	
2	
0	
0	
0	
2	
0	
0	
1	
2	
1	
1	
1	
0	
2	
1	
1	
2	
2	
0	
0	
1	
0	
1	
1	
0	
0	
1	
2	
0	
2	
2	
1	
0	
1	
0	
1	
0	
3	
1	
2	
0	
2	
1	
0	
0	
1	
2	
0	
2	
1	
0	
0	
0	
1	
1	
1	
1	
0	
0	
1	
1	
1	
0	
2	
1	
2	
1	
2	
1	
1	
2	
1	
0	
0	
0	
0	
1	
2	
0	
0	
1	
1	
0	
0	
1	
1	
1	
2	
3	
3	
1	
1	
0	
1	
1	
0	
1	
2	
0	
2	
3	
0	
0	
0	
0	
0	
2	
1	
0	
2	
2	
2	
3	
1	
0	
1	
2	
0	
1	
0	
1	
1	
0	
1	
0	
1	
0	
2	
1	
0	
1	
1	
0	
0	
0	
3	
0	
0	
1	
1	
1	
0	
0	
0	
1	
2	
0	
1	
2	
4	
0	
2	
2	
0	
2	
3	
4	
2	
1	
2	
2	
4	
1	
0	
1	
1	
1	
0	
0	
1	
0	
0	
0	
1	
2	
1	
1	
2	
1	
1	
1	
1	
2	
0	
2	
1	
0	
0	
1	
1	
2	
2	
1	
0	
1	
0	
2	
0	
2	
0	
0	
2	
1	
1	
0	
0	
1	
0	
0	
2	
0	
0	
0	
0	
0	
0	
0	
0	
0	
3	
0	
0	
1	
1	
2	
2	
1	
0	
0	
1	
0	
0	
0	
1	
0	
1	
3	
3	
1	
0	
1	
4	
1	
0	
0	
0	
1	
0	
0	
0	
0	
1	
1	
1	
0	
1	
0	
1	
1	
0	
2	
1	
1	
1	
3	
1	
1	
0	
2	
1	
0	
1	
1	
1	
1	
0	
2	
3	
0	
0	
1	
1	
2	
1	
0	
2	
2	
1	
2	
0	
0	
1	
0	
0	
0	
0	
2	
2	
2	
1	
1	
2	
1	
0	
0	
0	
1	
0	
0	
1	
2	
0	
0	
0	
0	
0	
2	
1	
0	
1	
0	
1	
2	
0	
1	
1	
0	
0	
0	
1	
0	
0	
0	
1	
1	
0	
0	
0	
1	
2	
0	
1	
0	
0	
1	
1	
0	
0	
2	
0	
3	
1	
0	
1	
3	
2	
2	
1	
2	
1	
1	
0	
1	
0	
0	
0	
2	
0	
2	
1	
0	
0	
1	
1	
1	
1	
0	
3	
0	
0	
0	
0	
1	
2	
1	
0	
1	
2	
1	
1	
1	
2	
0	
0	
3	
3	
0	
2	
1	
1	
2	
1	
2	
0	
2	
0	
1	
3	
0	
1	
1	
0	
0	
1	
1	
1	
1	
2	
0	
0	
0	
0	
0	
0	
3	
0	
3	
0	
0	
2	
0	
1	
2	
1	
0	
0	
0	
1	
2	
1	
2	
2	
0	
3	
4	
0	
3	
1	
2	
0	
1	
1	
0	
1	
3	
0	
0	
2	
0	
1	
1	
0	
1	
0	
0	
1	
0	
3	
0	
2	
0	
0	
0	
2	
0	
1	
2	
1	
1	
0	
1	
0	
1	
2	
2	
0	
1	
1	
2	
2	
0	
0	
0	
1	
1	
2	
3	
0	
1	
1	
2	
0	
2	
2	
0	
2	
1	
0	
0	
3	
0	
1	
4	
1	
1	
0	
0	
0	
0	
3	
1	
2	
0	
0	
0	
2	
0	
2	
3	
0	
1	
0	
0	
0	
0	
1	
0	
1	
0	
2	
3	
0	
2	
3	
0	
1	
1	
3	
0	
0	
1	
0	
1	
2	
1	
1	
1	
1	
1	
1	
1	
0	
0	
0	
1	
4	
2	
0	
0	
0	
0	
2	
1	
1	
1	
2	
0	
0	
0	
1	
1	
0	
3	
1	
1	
2	
2	
0	
2	
0	
1	
1	
1	
0	
2	
0	
0	
0	
0	
1	
1	
0	
5	
1	
0	
0	
1	
0	
1	
0	
1	
0	
1	
2	
2	
0	
0	
2	
1	
0	
2	
1	
0	
0	
2	
0	
0	
2	
1	
0	
0	
0	
2	
1	
0	
1	
1	
1	
2	
1	
0	
0	
1	
2	
0	
1	
0	
0	
1	
1	
1	
0	
0	
1	
1	
0	
0	
1	
1	
0	
1	
3	
0	
0	
1	
0	
1	
1	
0	
1	
1	
1	
0	
0	
0	
0	
1	
1	
1	
0	
2	
2	
0	
0	
0	
0	
2	
0	
2	
3	
2	
2	
2	
0	
0	
1	
0	
0	
1	
0	
1	
1	
1	
0	
2	
1	
1	
2	
1	
1	
0	
2	
0	
1	
0	
1	
1	
0	
1	
0	
2	
1	
2	
0	
2	
1	
1	
1	
2	
1	
4	
1	
0	
2	
0	
2	
2	
0	
1	
1	
1	
1	
1	
1	
0	
0	
1	
2	
0	
1	
0	
1	
0	
1	
1	
2	
0	
2	
0	
1	
1	
1	
1	
0	
2	
2	
1	
0	
1	
1	
0	
1	
1	
1	
0	
0	
0	
0	
0	
1	
0	
2	
0	
2	
2	
0	
1	
0	
0	
1	
1	
0	
0	
1	
1	
0	
0	
2	
1	
0	
0	
1	
1	
1	
1	
3	
1	
1	
0	
1	
0	
0	
1	
0	
0	
0	
2	
0	
1	
1	
1	
3	
0	
1	
0	
1	
2	
1	
1	
2	
4	
1	
0	
0	
0	
0	
0	
2	
0	
0	
0	
0	
0	
1	
0	
0	
0	
0	
1	
0	
0	
1	
1	
0	
1	
2	
0	
1	
0	
0	
1	
2	
1	
0	
1	
2	
1	
0	
0	
2	
0	
1	
0	
0	
0	
1	
1	
3	
0	
0	
1	
1	
1	
1	
0	
2	
0	
0	
1	
2	
0	
0	
0	
0	
1	
2	
0	
1	
0	
1	
1	
0	
1	
1	
1	
0	
1	
1	
2	
0	
0	
0	
1	
1	
0	
0	
1	
0	
0	
0	
1	
3	
2	
0	
0	
1	
1	
0	
3	
0	
3	
3	
0	
1	
1	
0	
0	
3	
0	
0	
0	
3	
2	
1	
1	
1	
3	
0	
1	
0	
0	
0	
1	
1	
0	
1	
1	
0	
1	
0	
0	
1	
1	
2	
0	
0	
1	
1	
1	
1	
0	
3	
1	
0	
0	
0	
0	
2	
2	
1	
1	
0	
0	
0	
0	
1	
0	
1	
0	
1	
1	
0	
0	
3	
0	
0	
1	
2	
1	
1	
1	
0	
0	
1	
2	
0	
0	
2	
0	
0	
0	
0	
2	
1	
0	
3	
0	
0	
1	
0	
0	
2	
1	
1	
0	
0	
0	
1	
0	
0	
0	
1	
1	
0	
0	
0	
2	
0	
1	
2	
1	
3	
1	
1	
1	
1	
2	
0	
1	
1	
1	
2	
1	
1	
3	
2	
1	
1	
0	
1	
0	
0	
0	
2	
0	
3	
1	
0	
1	
0	
0	
2	
1	
2	
0	
1	
0	
1	
2	
1	
2	
1	
2	
0	
1	
0	
0	
0	
2	
2	
0	
0	
2	
0	
0	
1	
1	
1	
1	
1	
0	
1	
1	
1	
0	
1	
1	
0	
0	
0	
3	
0	
2	
0	
1	
0	
0	
0	
0	
0	
1	
0	
1	
0	
0	
1	
0	
0	
1	
0	
1	
0	
1	
1	
0	
0	
1	
1	
2	
1	
1	
2	
0	
0	
0	
1	
0	
1	
0	
1	
0	
1	
2	
1	
0	
0	
0	
0	
1	
1	
0	
0	
1	
0	
0	
0	
1	
1	
1	
2	
0	
1	
2	
0	
1	
2	
1	
0	
1	
2	
3	
0	
2	
1	
1	
1	
0	
2	
1	
1	
1	
1	
3	
0	
0	
0	
0	
3	
1	
2	
0	
1	
2	
1	
0	
0	
0	
1	
1	
1	
0	
0	
3	
0	
1	
2	
0	
1	
1	
0	
1	
1	
2	
1	
0	
0	
1	
2	
3	
1	
0	
2	
1	
0	
3	
2	
0	
1	
3	
0	
0	
0	
1	
0	
0	
2	
0	
0	
1	
0	
0	
0	
1	
1	
2	
3	
2	
1	
2	
1	
0	
0	
4	
1	
1	
2	
1	
2	
0	
1	
2	
1	
2	
0	
0	
2	
0	
2	
0	
2	
1	
1	
0	
2	
2	
1	
0	
0	
1	
0	
0	
0	
0	
1	
2	
0	
1	
0	
1	
1	
1	
0	
0	
0	
2	
0	
2	
0	
0	
0	
0	
0	
0	
2	
0	
0	
0	
0	
0	
1	
2	
0	
1	
0	
0	
0	
1	
0	
1	
0	
1	
0	
0	
1	
0	
0	
4	
0	
1	
2	
1	
0	
0	
1	
0	
1	
0	
1	
1	
3	
0	
0	
0	
0	
0	
0	
0	
1	
1	
1	
0	
0	
0	
2	
2	
3	
1	
0	
0	
0	
1	
0	
1	
0	
0	
1	
1	
1	
0	
3	
1	
1	
2	
1	
0	
0	
0	
2	
0	
2	
0	
1	
3	
0	
2	
0	
0	
1	
1	
1	
1	
1	
0	
1	
1	
1	
0	
3	
0	
0	
0	
1	
1	
1	
0	
0	
1	
1	
0	
0	
0	
0	
0	
1	
1	
0	
2	
0	
1	
0	
1	
1	
1	
1	
2	
2	
1	
1	
1	
0	
0	
0	
1	
0	
1	
0	
0	
1	
1	
1	
1	
1	
0	
0	
2	
1	
1	
0	
2	
1	
0	
0	
0	
1	
1	
1	
0	
0	
1	
0	
1	
2	
0	
0	
1	
2	
0	
1	
1	
0	
1	
0	
3	
3	
0	
0	
1	
2	
1	
2	
1	
0	
0	
2	
1	
0	
0	
0	
0	
1	
0	
0	
3	
0	
1	
0	
2	
2	
0	
2	
0	
1	
2	
2	
0	
0	
2	
0	
2	
1	
1	
0	
0	
1	
3	
0	
0	
1	
1	
0	
0	
0	
1	
0	
1	
0	
1	
2	
1	
1	
0	
0	
0	
1	
0	
0	
0	
3	
3	
1	
1	
1	
0	
1	
0	
1	
2	
2	
0	
2	
1	
1	
1	
0	
0	
1	
1	
0	
0	
2	
1	
2	
2	
0	
3	
1	
1	
0	
0	
1	
1	
0	
2	
0	
0	
1	
0	
0	
2	
0	
0	
0	
1	
0	
0	
0	
1	
1	
2	
2	
0	
0	
0	
1	
2	
0	
0	
0	
0	
0	
0	
1	
0	
0	
0	
1	
2	
2	
1	
1	
0	
2	
0	
3	
0	
0	
0	
0	
0	
1	
0	
0	
0	
0	
1	
1	
0	
0	
0	
1	
0	
0	
2	
0	
0	
3	
0	
1	
0	
1	
0	
0	
1	
0	
0	
0	
2	
0	
0	
2	
3	
0	
2	
1	
1	
0	
1	
0	
1	
1	
1	
1	
0	
1	
2	
3	
1	
0	
2	
1	
0	
0	
2	
0	
0	
2	
0	
0	
0	
0	
1	
0	
0	
1	
0	
0	
2	
1	
1	
2	
2	
1	
0	
1	
0	
1	
1	
1	
2	
2	
4	
0	
0	
0	
2	
0	
0	
0	
0	
1	
1	
0	
1	
0	
1	
1	
1	
0	
2	
1	
0	
0	
1	
1	
0	
0	
0	
1	
0	
3	
1	
2	
0	
1	
1	
0	
1	
1	
0	
0	
0	
1	
0	
0	
2	
0	
2	
0	
1	
0	
1	
0	
0	
0	
0	
0	
1	
0	
2	
0	
2	
2	
0	
0	
1	
1	
2	
0	
0	
1	
0	
0	
1	
2	
0	
0	
1	
0	
0	
1	
1	
1	
1	
0	
4	
0	
1	
1	
0	
1	
3	
0	
3	
1	
0	
2	
0	
0	
1	
1	
0	
0	
1	
1	
0	
0	
1	
0	
0	
0	
1	
1	
0	
0	
2	
0	
1	
2	
1	
1	
0	
1	
0	
0	
3	
0	
3	
0	
2	
0	
1	
0	
0	
1	
1	
1	
1	
1	
0	
0	
0	
0	
0	
1	
1	
0	
1	
0	
1	
1	
0	
3	
2	
0	
0	
0	
0	
0	
1	
1	
0	
0	
0	
0	
1	
1	
0	
2	
0	
0	
1	
0	
2	
0	
0	
1	
0	
0	
1	
2	
0	
0	
0	
0	
1	
1	
2	
3	
5	
0	
0	
0	
2	
3	
0	
2	
0	
1	
1	
1	
0	
1	
0	
0	
1	
1	
0	
1	
1	
1	
0	
0	
0	
1	
0	
4	
1	
1	
0	
0	
0	
1	
0	
3	
0	
0	
0	
0	
0	
0	
2	
0	
0	
0	
0	
0	
0	
1	
0	
2	
1	
0	
2	
2	
2	
0	
0	
0	
2	
0	
0	
1	
0	
0	
0	
0	
1	
0	
1	
2	
0	
2	
0	
0	
1	
1	
1	
1	
0	
0	
0	
2	
1	
0	
0	
0	
1	
0	
0	
0	
0	
0	
3	
0	
1	
0	
1	
0	
2	
1	
1	
0	
0	
1	
1	
1	
0	
0	
1	
1	
0	
0	
0	
0	
2	
1	
3	
0	
0	
1	
0	
0	
1	
1	
0	
2	
0	
1	
1	
0	
1	
1	
1	
3	
0	
0	
1	
1	
1	
1	
0	
2	
0	
3	
0	
0	
1	
0	
0	
0	
0	
0	
0	
1	
0	
1	
1	
0	
0	
0	
1	
1	
3	
0	
2	
0	
3	
0	
0	
1	
1	
1	
0	
1	
1	
2	
0	
2	
0	
0	
0	
0	
0	
0	
1	
1	
0	
0	
2	
1	
0	
0	
0	
1	
0	
0	
1	
0	
2	
1	
0	
1	
1	
1	
0	
0	
2	
0	
0	
0	
0	
0	
1	
1	
0	
1	
0	
1	
1	
0	
1	
0	
1	
4	
0	
0	
2	
0	
1	
3	
0	
1	
0	
1	
2	
1	
1	
0	
1	
1	
1	
0	
0	
0	
0	
0	
0	
1	
0	
2	
2	
2	
2	
1	
0	
0	
0	
1	
3	
0	
0	
0	
1	
1	
1	
0	
0	
0	
0	
0	
0	
0	
0	
2	
1	
0	
1	
0	
0	
0	
0	
2	
1	
2	
0	
0	
2	
2	
0	
0	
3	
1	
0	
0	
2	
0	
1	
1	
2	
1	
1	
0	
1	
3	
0	
1	
1	
0	
2	
1	
0	
0	
2	
2	
1	
0	
1	
0	
1	
1	
0	
1	
1	
0	
2	
2	
0	
0	
0	
0	
1	
0	
1	
0	
1	
1	
1	
1	
2	
0	
0	
1	
0	
0	
1	
0	
0	
1	
1	
1	
1	
0	
0	
1	
1	
1	
0	
0	
0	
0	
1	
0	
1	
0	
1	
1	
0	
1	
1	
2	
0	
0	
1	
1	
0	
0	
1	
0	
0	
1	
0	
0	
1	
1	
0	
2	
2	
0	
0	
0	
0	
1	
0	
2	
2	
0	
2	
1	
0	
0	
0	
2	
0	
3	
1	
0	
0	
1	
0	
0	
0	
0	
1	
1	
0	
0	
1	
1	
2	
0	
3	
1	
1	
1	
1	
0	
1	
0	
1	
0	
1	
0	
0	
0	
0	
1	
0	
0	
0	
1	
0	
3	
1	
0	
0	
0	
1	
0	
0	
2	
1	
0	
1	
0	
2	
0	
0	
0	
0	
0	
0	
0	
0	
1	
1	
1	
0	
1	
0	
2	
1	
1	
0	
0	
0	
0	
0	
0	
0	
0	
0	
0	
3	
0	
0	
0	
2	
0	
1	
1	
0	
2	
2	
0	
1	
1	
1	
2	
0	
0	
1	
0	
1	
2	
0	
1	
0	
1	
0	
2	
2	
0	
1	
1	
0	
1	
1	
1	
0	
1	
3	
0	
1	
2	
1	
0	
2	
1	
0	
0	
0	
0	
1	
0	
2	
1	
2	
0	
0	
1	
0	
0	
0	
2	
1	
1	
1	
3	
0	
0	
1	
0	
1	
0	
0	
0	
0	
0	
0	
0	
1	
2	
0	
0	
1	
3	
2	
2	
0	
1	
0	
1	
1	
0	
1	
1	
1	
0	
0	
2	
1	
0	
0	
0	
1	
0	
1	
0	
0	
0	
1	
0	
0	
0	
0	
0	
1	
0	
0	
0	
0	
2	
0	
0	
0	
0	
0	
1	
0	
0	
1	
3	
0	
0	
0	
0	
0	
1	
0	
0	
1	
0	
0	
1	
0	
0	
2	
1	
0	
1	
0	
2	
0	
0	
0	
1	
1	
1	
0	
1	
0	
0	
2	
0	
0	
0	
1	
0	
1	
1	
2	
1	
0	
0	
1	
0	
1	
0	
1	
2	
3	
3	
0	
0	
2	
0	
0	
0	
1	
2	
1	
0	
0	
1	
1	
1	
0	
0	
0	
1	
0	
0	
0	
0	
1	
1	
0	
1	
0	
1	
2	
0	
0	
0	
1	
0	
0	
1	
0	
2	
2	
1	
0	
1	
0	
0	
1	
2	
1	
0	
0	
0	
0	
0	
0	
0	
0	
0	
0	
0	
2	
0	
0	
1	
0	
0	
0	
1	
1	
2	
1	
0	
1	
0	
1	
0	
0	
0	
0	
1	
0	
0	
0	
0	
0	
1	
0	
2	
2	
0	
0	
1	
2	
0	
1	
0	
0	
0	
0	
1	
0	
0	
0	
0	
0	
0	
2	
2	
1	
0	
0	
0	
0	
0	
2	
3	
1	
3	
1	
0	
2	
0	
0	
0	
0	
0	
0	
0	
0	
0	
0	
1	
0	
1	
1	
1	
0	
0	
0	
2	
2	
2	
0	
0	
1	
1	
0	
0	
0	
1	
0	
0	
1	
2	
1	
0	
0	
0	
1	
1	
0	
0	
2	
1	
2	
1	
0	
0	
0	
1	
0	
1	
1	
0	
1	
1	
2	
0	
0	
0	
2	
0	
0	
0	
0	
0	
0	
0	
3	
0	
2	
0	
0	
0	
1	
2	
1	
0	
1	
1	
0	
0	
1	
0	
1	
2	
0	
0	
1	
1	
0	
0	
0	
1	
1	
0	
1	
1	
0	
0	
0	
0	
0	
0	
0	
0	
0	
1	
1	
0	
0	
0	
1	
0	
1	
0	
0	
1	
0	
0	
1	
0	
1	
0	
0	
2	
0	
1	
1	
1	
0	
1	
0	
2	
0	
0	
0	
1	
0	
0	
0	
1	
3	
1	
0	
1	
0	
1	
2	
0	
1	
1	
1	
0	
0	
1	
0	
0	
2	
0	
0	
0	
0	
0	
1	
1	
1	
0	
1	
0	
0	
0	
0	
0	
2	
2	
1	
0	
2	
1	
2	
2	
1	
1	
1	
1	
1	
1	
1	
1	
3	
0	
0	
0	
0	
0	
1	
0	
0	
1	
0	
0	
0	
0	
1	
1	
0	
1	
1	
2	
0	
0	
4	
0	
0	
0	
1	
0	
0	
1	
0	
1	
1	
0	
1	
3	
3	
2	
1	
0	
0	
2	
0	
1	
1	
0	
1	
0	
1	
0	
0	
1	
0	
0	
0	
0	
0	
0	
0	
0	
2	
2	
1	
0	
2	
1	
3	
0	
1	
1	
3	
1	
3	
0	
2	
0	
0	
3	
1	
1	
1	
0	
0	
5	
1	
1	
1	
0	
1	
1	
0	
0	
1	
0	
0	
1	
0	
0	
1	
0	
0	
0	
0	
2	
1	
0	
2	
1	
1	
3	
0	
0	
1	
0	
0	
0	
0	
2	
1	
0	
0	
1	
1	
0	
1	
1	
0	
0	
1	
1	
0	
1	
1	
1	
1	
3	
0	
0	
0	
0	
1	
1	
0	
0	
1	
0	
2	
0	
0	
0	
1	
0	
1	
0	
1	
1	
1	
0	
0	
1	
3	
0	
1	
1	
1	
0	
1	
0	
4	
0	
0	
0	
0	
1	
0	
0	
0	
0	
2	
1	
1	
0	
1	
0	
1	
0	
1	
0	
1	
0	
0	
1	
1	
1	
0	
2	
2	
1	
0	
2	
1	
1	
1	
0	
1	
0	
1	
1	
0	
1	
1	
2	
0	
1	
5	
0	
1	
0	
0	
0	
1	
0	
3	
1	
0	
1	
0	
0	
1	
1	
0	
0	
4	
0	
1	
2	
2	
0	
0	
0	
0	
2	
2	
0	
0	
0	
0	
0	
1	
0	
2	
1	
1	
1	
0	
1	
0	
0	
0	
2	
0	
0	
1	
0	
0	
1	
1	
2	
0	
0	
0	
1	
0	
1	
0	
1	
3	
0	
0	
0	
2	
2	
1	
0	
2	
1	
1	
1	
0	
0	
1	
1	
0	
2	
0	
1	
0	
1	
2	
1	
0	
0	
0	
0	
0	
0	
0	
2	
0	
1	
0	
0	
0	
2	
1	
0	
2	
2	
0	
0	
1	
2	
0	
0	
1	
0	
0	
0	
0	
0	
2	
2	
0	
0	
0	
0	
2	
0	
0	
1	
0	
0	
1	
0	
2	
1	
0	
0	
0	
1	
0	
2	
0	
0	
0	
0	
0	
1	
0	
0	
0	
0	
1	
0	
1	
1	
0	
4	
0	
1	
1	
2	
1	
1	
2	
1	
1	
0	
0	
2	
0	
2	
3	
0	
1	
0	
2	
0	
0	
0	
1	
0	
0	
0	
1	
1	
0	
1	
1	
1	
1	
2	
0	
0	
0	
0	
1	
0	
0	
0	
0	
1	
1	
0	
1	
1	
1	
1	
0	
1	
0	
4	
1	
0	
0	
1	
1	
0	
0	
1	
2	
0	
0	
1	
0	
0	
1	
1	
1	
2	
1	
2	
0	
0	
1	
1	
0	
1	
1	
0	
0	
0	
1	
1	
0	
0	
1	
1	
2	
2	
0	
0	
2	
2	
1	
1	
1	
0	
1	
1	
0	
0	
1	
2	
0	
1	
0	
0	
1	
1	
2	
1	
2	
0	
1	
0	
2	
0	
3	
1	
0	
0	
0	
0	
0	
0	
2	
0	
1	
2	
0	
0	
1	
1	
0	
0	
0	
2	
1	
0	
1	
0	
0	
0	
1	
0	
0	
0	
2	
1	
0	
2	
0	
1	
1	
1	
0	
0	
1	
0	
0	
0	
0	
2	
1	
1	
0	
0	
0	
2	
2	
0	
0	
0	
2	
1	
0	
0	
1	
0	
0	
1	
1	
0	
0	
0	
0	
1	
0	
0	
3	
1	
1	
0	
2	
0	
1	
1	
0	
0	
0	
0	
2	
2	
0	
0	
1	
1	
0	
0	
1	
0	
1	
1	
0	
0	
0	
1	
0	
2	
0	
0	
0	
1	
1	
2	
2	
0	
0	
1	
1	
1	
0	
0	
0	
0	
0	
0	
1	
3	
2	
2	
1	
1	
1	
2	
0	
2	
0	
1	
2	
0	
1	
2	
0	
1	
1	
1	
1	
0	
2	
0	
0	
0	
1	
0	
1	
1	
0	
0	
2	
1	
0	
2	
0	
1	
0	
1	
0	
0	
3	
0	
0	
0	
0	
0	
0	
2	
1	
0	
0	
0	
1	
0	
0	
1	
2	
0	
1	
0	
0	
1	
0	
2	
0	
1	
1	
1	
0	
1	
1	
0	
2	
1	
1	
0	
0	
3	
1	
1	
1	
0	
3	
0	
0	
1	
0	
0	
2	
1	
3	
0	
2	
1	
0	
0	
1	
0	
1	
1	
2	
0	
0	
0	
1	
2	
1	
0	
0	
1	
0	
0	
1	
0	
0	
1	
0	
1	
0	
1	
0	
0	
1	
1	
1	
0	
1	
0	
1	
1	
0	
0	
1	
0	
0	
1	
0	
1	
1	
0	
0	
0	
0	
0	
0	
1	
0	
1	
0	
0	
0	
1	
1	
1	
0	
1	
0	
0	
1	
0	
0	
0	
2	
0	
1	
0	
0	
2	
0	
1	
1	
0	
0	
0	
0	
1	
1	
1	
0	
2	
0	
1	
0	
1	
1	
1	
0	
0	
0	
1	
0	
0	
1	
1	
0	
1	
0	
0	
1	
2	
1	
1	
1	
0	
1	
0	
1	
0	
3	
2	
0	
0	
0	
1	
0	
1	
0	
0	
0	
0	
0	
0	
0	
0	
2	
0	
0	
2	
1	
2	
1	
0	
0	
0	
0	
1	
1	
0	
1	
0	
0	
0	
0	
1	
0	
1	
0	
0	
1	
1	
1	
0	
2	
1	
2	
0	
0	
0	
0	
1	
1	
1	
0	
0	
0	
0	
1	
1	
1	
0	
3	
0	
1	
1	
0	
0	
0	
1	
0	
1	
0	
2	
0	
1	
0	
1	
1	
1	
1	
2	
0	
1	
0	
1	
1	
0	
1	
0	
0	
2	
1	
0	
0	
2	
1	
0	
1	
0	
2	
0	
1	
0	
0	
1	
1	
2	
1	
2	
1	
1	
0	
0	
0	
0	
0	
1	
0	
0	
0	
0	
0	
1	
0	
1	
1	
1	
2	
0	
0	
2	
1	
0	
0	
0	
0	
0	
4	
0	
0	
0	
1	
1	
0	
1	
0	
0	
0	
2	
0	
1	
2	
1	
1	
1	
1	
1	
4	
0	
1	
0	
0	
1	
1	
0	
2	
0	
2	
2	
2	
0	
1	
0	
1	
0	
0	
2	
1	
2	
0	
1	
1	
1	
1	
1	
0	
1	
1	
0	
3	
1	
1	
1	
1	
2	
0	
0	
0	
2	
1	
0	
0	
0	
2	
0	
2	
1	
0	
1	
1	
0	
2	
0	
1	
0	
0	
0	
0	
0	
0	
2	
0	
2	
1	
1	
0	
0	
0	
1	
1	
0	
0	
2	
1	
0	
1	
2	
1	
2	
1	
0	
0	
1	
0	
1	
0	
2	
0	
2	
0	
0	
0	
1	
0	
0	
0	
0	
1	
0	
1	
1	
1	
0	
0	
0	
0	
1	
1	
0	
0	
0	
2	
2	
0	
0	
0	
0	
1	
1	
1	
1	
0	
1	
1	
0	
2	
0	
1	
0	
1	
0	
0	
2	
0	
0	
1	
0	
1	
1	
0	
1	
0	
1	
2	
2	
1	
0	
0	
0	
0	
0	
1	
0	
1	
0	
2	
0	
0	
0	
0	
0	
1	
0	
0	
0	
1	
1	
2	
0	
1	
1	
2	
0	
1	
0	
1	
0	
0	
1	
0	
1	
3	
1	
4	
0	
0	
1	
0	
0	
1	
0	
2	
0	
1	
0	
2	
1	
0	
0	
0	
0	
0	
0	
0	
2	
0	
1	
1	
0	
1	
1	
0	
0	
1	
0	
2	
0	
1	
0	
0	
1	
0	
0	
0	
0	
0	
0	
0	
0	
2	
0	
0	
0	
0	
1	
0	
2	
0	
2	
0	
0	
1	
0	
0	
1	
0	
0	
0	
2	
0	
0	
1	
1	
0	
0	
0	
0	
0	
0	
0	
0	
0	
0	
1	
2	
0	
0	
1	
2	
0	
0	
0	
0	
0	
0	
0	
2	
1	
0	
0	
1	
0	
2	
0	
1	
2	
2	
1	
1	
0	
0	
0	
1	
3	
0	
0	
0	
1	
0	
1	
1	
0	
0	
1	
2	
1	
1	
2	
2	
1	
1	
0	
1	
1	
0	
3	
0	
0	
0	
0	
1	
2	
1	
1	
2	
0	
0	
0	
0	
0	
0	
0	
1	
0	
1	
0	
1	
0	
0	
1	
0	
0	
1	
0	
1	
0	
0	
1	
0	
1	
1	
2	
0	
1	
1	
1	
0	
0	
1	
1	
0	
1	
0	
1	
1	
0	
0	
0	
1	
1	
0	
0	
2	
0	
1	
1	
0	
2	
0	
1	
0	
1	
1	
0	
1	
0	
0	
1	
1	
1	
4	
0	
1	
0	
0	
0	
0	
3	
1	
0	
0	
1	
0	
1	
0	
1	
1	
0	
0	
0	
2	
0	
0	
1	
0	
0	
1	
0	
1	
1	
1	
2	
1	
0	
1	
0	
1	
0	
0	
0	
0	
1	
2	
0	
0	
1	
0	
0	
2	
1	
0	
0	
0	
0	
0	
0	
0	
1	
1	
1	
0	
2	
4	
1	
0	
2	
0	
0	
1	
0	
1	
0	
0	
1	
1	
0	
0	
0	
1	
1	
1	
1	
1	
1	
0	
1	
1	
1	
2	
2	
1	
0	
1	
0	
1	
0	
1	
0	
0	
0	
1	
0	
0	
0	
1	
0	
0	
0	
0	
1	
0	
1	
0	
0	
0	
1	
0	
0	
0	
1	
0	
0	
2	
0	
1	
1	
1	
0	
0	
1	
0	
1	
0	
0	
2	
1	
0	
1	
1	
0	
0	
1	
2	
2	
0	
0	
0	
1	
1	
0	
0	
0	
0	
0	
0	
0	
0	
0	
0	
0	
1	
1	
0	
1	
0	
1	
1	
0	
2	
0	
2	
0	
1	
2	
1	
0	
0	
0	
0	
1	
0	
0	
2	
0	
0	
0	
0	
0	
1	
1	
0	
1	
0	
0	
0	
0	
0	
0	
1	
0	
1	
0	
2	
1	
1	
0	
0	
1	
0	
3	
0	
0	
0	
1	
0	
0	
0	
1	
1	
1	
0	
0	
1	
2	
1	
1	
0	
0	
0	
1	
0	
0	
1	
0	
1	
0	
0	
0	
2	
1	
2	
0	
0	
0	
0	
1	
0	
0	
1	
0	
0	
0	
0	
0	
0	
0	
0	
1	
0	
1	
0	
0	
1	
1	
0	
0	
0	
1	
0	
1	
0	
1	
0	
0	
1	
0	
0	
2	
1	
2	
2	
0	
0	
0	
0	
1	
1	
1	
0	
1	
0	
1	
0	
1	
0	
0	
1	
0	
0	
1	
0	
1	
1	
0	
0	
0	
1	
0	
1	
1	
0	
0	
1	
1	
0	
0	
2	
1	
1	
2	
1	
0	
1	
0	
0	
1	
0	
1	
0	
1	
0	
0	
0	
1	
2	
1	
1	
0	
0	
0	
0	
0	
0	
0	
0	
1	
0	
2	
1	
0	
0	
0	
0	
1	
0	
2	
1	
1	
0	
1	
0	
2	
0	
1	
1	
0	
0	
2	
1	
1	
2	
0	
1	
0	
0	
1	
0	
0	
0	
1	
0	
3	
1	
0	
0	
0	
2	
0	
0	
2	
0	
1	
0	
1	
1	
1	
0	
0	
1	
0	
2	
0	
2	
0	
1	
0	
0	
0	
1	
1	
0	
3	
1	
0	
0	
2	
0	
0	
2	
2	
1	
3	
1	
1	
0	
2	
0	
1	
2	
1	
1	
2	
0	
3	
1	
0	
1	
1	
2	
0	
1	
0	
1	
1	
0	
1	
0	
0	
0	
0	
0	
0	
1	
1	
1	
1	
0	
0	
1	
1	
1	
0	
0	
0	
0	
0	
1	
0	
2	
1	
0	
0	
0	
0	
0	
1	
1	
0	
1	
0	
2	
2	
2	
2	
0	
2	
0	
1	
0	
1	
1	
1	
1	
2	
0	
0	
0	
0	
2	
0	
0	
1	
0	
0	
0	
2	
0	
0	
0	
2	
0	
1	
2	
2	
2	
1	
0	
2	
0	
0	
0	
1	
0	
1	
1	
1	
0	
0	
2	
1	
0	
0	
5	
1	
1	
1	
0	
0	
0	
0	
1	
1	
1	
0	
1	
0	
1	
1	
2	
0	
1	
0	
0	
1	
0	
0	
1	
1	
1	
1	
0	
1	
0	
2	
2	
1	
1	
1	
1	
0	
0	
1	
1	
0	
1	
0	
0	
1	
0	
0	
1	
0	
0	
0	
1	
1	
0	
0	
1	
1	
0	
0	
0	
0	
3	
0	
1	
0	
1	
2	
1	
0	
0	
0	
0	
0	
2	
1	
1	
1	
0	
1	
0	
1	
2	
2	
0	
0	
0	
1	
0	
0	
0	
0	
2	
0	
0	
0	
0	
1	
0	
1	
1	
1	
1	
1	
2	
1	
1	
0	
2	
1	
0	
0	
0	
2	
1	
1	
1	
0	
0	
1	
1	
1	
0	
1	
0	
1	
2	
0	
0	
3	
1	
0	
0	
2	
0	
0	
0	
0	
1	
0	
1	
1	
0	
0	
0	
0	
1	
1	
2	
0	
1	
0	
0	
2	
2	
0	
1	
0	
0	
0	
0	
0	
0	
0	
0	
0	
1	
2	
1	
1	
0	
2	
1	
2	
0	
1	
0	
1	
0	
2	
2	
0	
0	
0	
0	
0	
2	
1	
1	
2	
0	
0	
0	
0	
0	
0	
0	
0	
0	
1	
1	
0	
0	
1	
2	
1	
1	
0	
1	
1	
1	
0	
0	
0	
0	
1	
0	
2	
1	
2	
1	
1	
1	
2	
0	
0	
0	
1	
2	
0	
0	
2	
0	
2	
0	
0	
1	
0	
0	
1	
0	
0	
1	
3	
0	
0	
0	
1	
3	
2	
0	
0	
0	
0	
1	
1	
0	
2	
1	
0	
1	
0	
1	
1	
0	
0	
0	
0	
1	
1	
0	
1	
1	
1	
1	
1	
0	
1	
2	
0	
3	
0	
0	
0	
1	
2	
1	
1	
0	
0	
1	
1	
0	
0	
1	
1	
1	
0	
2	
0	
0	
1	
1	
2	
0	
1	
0	
1	
1	
1	
0	
2	
1	
0	
1	
1	
1	
1	
0	
0	
0	
0	
3	
1	
1	
0	
1	
0	
0	
0	
1	
0	
0	
0	
1	
0	
0	
0	
1	
1	
0	
0	
0	
1	
0	
0	
0	
0	
1	
0	
0	
0	
0	
0	
0	
0	
0	
1	
0	
1	
0	
1	
1	
1	
0	
0	
0	
0	
0	
1	
0	
2	
1	
1	
0	
6	
0	
2	
0	
0	
0	
1	
0	
1	
1	
2	
0	
0	
0	
1	
0	
0	
2	
0	
0	
0	
2	
0	
0	
1	
0	
3	
0	
0	
0	
0	
0	
0	
2	
1	
0	
1	
0	
0	
1	
1	
0	
1	
0	
1	
3	
2	
0	
1	
1	
0	
0	
0	
0	
0	
0	
0	
2	
0	
0	
0	
0	
0	
2	
0	
0	
0	
1	
0	
1	
2	
0	
0	
0	
0	
0	
0	
0	
2	
0	
0	
1	
0	
1	
0	
0	
1	
2	
0	
1	
1	
0	
0	
0	
1	
0	
2	
0	
0	
0	
1	
2	
0	
1	
1	
0	
0	
0	
0	
0	
0	
1	
0	
0	
0	
1	
1	
0	
0	
0	
2	
1	
1	
0	
1	
1	
0	
0	
1	
1	
0	
1	
0	
0	
0	
0	
0	
0	
0	
0	
1	
1	
0	
0	
1	
0	
0	
0	
2	
0	
2	
0	
1	
0	
1	
0	
1	
1	
1	
3	
0	
0	
0	
0	
0	
0	
0	
0	
0	
0	
1	
1	
1	
0	
3	
0	
0	
1	
2	
0	
2	
0	
1	
0	
1	
0	
0	
2	
2	
0	
0	
0	
2	
0	
0	
0	
0	
0	
0	
0	
0	
0	
1	
2	
0	
2	
1	
1	
1	
0	
0	
1	
0	
1	
0	
0	
0	
0	
0	
0	
1	
2	
1	
1	
0	
0	
2	
1	
2	
0	
1	
0	
0	
0	
1	
0	
1	
4	
0	
0	
0	
1	
0	
2	
1	
2	
2	
0	
1	
0	
2	
0	
1	
1	
0	
1	
1	
2	
0	
1	
0	
0	
3	
0	
0	
0	
0	
2	
0	
1	
0	
1	
2	
0	
1	
0	
1	
0	
0	
1	
1	
0	
1	
0	
1	
2	
0	
0	
0	
2	
0	
0	
3	
0	
1	
2	
2	
0	
2	
0	
1	
0	
1	
0	
0	
1	
1	
1	
1	
1	
1	
1	
0	
1	
2	
1	
0	
0	
0	
0	
0	
1	
0	
1	
1	
0	
0	
0	
0	
1	
0	
0	
0	
1	
0	
0	
0	
2	
1	
1	
0	
1	
2	
1	
1	
1	
0	
1	
0	
2	
0	
1	
0	
1	
2	
2	
0	
1	
2	
0	
0	
0	
0	
0	
0	
0	
1	
1	
1	
0	
0	
0	
0	
0	
0	
0	
0	
2	
0	
1	
1	
1	
1	
1	
1	
0	
0	
1	
1	
0	
0	
2	
1	
0	
0	
0	
2	
0	
0	
0	
0	
0	
3	
1	
0	
0	
1	
0	
0	
0	
1	
1	
0	
0	
0	
1	
0	
0	
0	
0	
0	
0	
0	
1	
0	
0	
0	
1	
0	
0	
1	
1	
2	
1	
0	
1	
3	
1	
0	
1	
1	
0	
0	
0	
0	
1	
0	
1	
0	
0	
0	
1	
0	
1	
1	
0	
0	
2	
0	
1	
1	
0	
0	
2	
2	
1	
0	
1	
1	
0	
1	
0	
0	
0	
0	
0	
1	
0	
0	
0	
0	
1	
0	
0	
1	
1	
0	
1	
1	
0	
0	
1	
2	
0	
1	
0	
0	
0	
0	
1	
0	
0	
2	
1	
0	
0	
0	
0	
0	
0	
2	
3	
0	
0	
1	
0	
2	
0	
1	
0	
0	
0	
1	
1	
1	
2	
0	
0	
0	
1	
1	
0	
0	
1	
0	
1	
0	
0	
0	
1	
3	
0	
0	
0	
1	
0	
1	
0	
0	
3	
1	
0	
0	
0	
0	
0	
0	
1	
0	
2	
4	
0	
0	
0	
0	
0	
0	
0	
1	
2	
0	
4	
0	
0	
0	
0	
0	
2	
0	
1	
1	
1	
0	
0	
0	
0	
2	
0	
1	
0	
1	
1	
1	
0	
1	
0	
0	
1	
0	
0	
0	
0	
1	
1	
2	
0	
2	
1	
1	
0	
0	
0	
0	
0	
0	
0	
0	
0	
0	
0	
0	
3	
1	
1	
3	
1	
1	
0	
1	
0	
0	
0	
1	
1	
0	
0	
1	
0	
3	
0	
1	
0	
1	
0	
1	
1	
2	
2	
1	
0	
0	
1	
0	
0	
1	
1	
0	
0	
0	
0	
0	
1	
0	
0	
0	
1	
0	
1	
1	
0	
1	
3	
0	
1	
2	
1	
1	
0	
1	
3	
0	
0	
1	
2	
1	
2	
1	
0	
1	
0	
0	
2	
1	
0	
0	
1	
1	
0	
0	
1	
0	
2	
0	
1	
1	
0	
0	
0	
1	
0	
1	
0	
2	
0	
0	
0	
0	
2	
0	
0	
0	
0	
1	
0	
2	
0	
0	
0	
1	
0	
0	
0	
0	
0	
2	
0	
0	
0	
0	
0	
1	
0	
0	
0	
2	
1	
1	
1	
1	
0	
1	
0	
0	
2	
0	
1	
0	
1	
0	
0	
0	
0	
2	
1	
2	
2	
1	
1	
0	
0	
1	
0	
0	
1	
1	
1	
2	
1	
0	
2	
0	
2	
0	
0	
1	
0	
0	
0	
1	
0	
0	
0	
1	
2	
0	
1	
1	
2	
0	
0	
1	
1	
0	
0	
1	
0	
1	
1	
0	
2	
2	
1	
1	
0	
1	
1	
1	
0	
1	
0	
0	
0	
1	
0	
0	
0	
1	
0	
0	
0	
0	
0	
0	
0	
0	
1	
1	
1	
0	
1	
0	
0	
1	
0	
0	
0	
1	
0	
1	
0	
2	
0	
2	
1	
1	
1	
1	
1	
0	
1	
1	
0	
1	
0	
1	
1	
0	
1	
0	
1	
0	
1	
1	
1	
0	
2	
1	
1	
0	
1	
1	
1	
0	
1	
0	
1	
1	
0	
0	
2	
0	
0	
1	
0	
0	
1	
0	
0	
1	
0	
1	
1	
1	
0	
1	
0	
0	
0	
1	
2	
0	
0	
1	
0	
0	
0	
0	
1	
0	
0	
0	
2	
1	
0	
0	
0	
0	
0	
0	
1	
0	
0	
0	
3	
1	
0	
2	
0	
0	
1	
0	
0	
1	
1	
0	
2	
1	
0	
1	
0	
2	
2	
1	
1	
1	
1	
1	
1	
1	
1	
1	
0	
0	
0	
0	
0	
0	
0	
0	
0	
0	
1	
0	
1	
1	
0	
1	
0	
1	
1	
0	
2	
1	
0	
1	
0	
1	
0	
1	
0	
1	
0	
2	
0	
0	
3	
1	
2	
1	
0	
0	
0	
0	
0	
1	
2	
0	
1	
0	
0	
2	
0	
0	
0	
0	
0	
1	
2	
0	
0	
1	
1	
1	
1	
0	
0	
1	
0	
0	
0	
0	
2	
0	
3	
2	
1	
0	
2	
2	
0	
0	
1	
1	
1	
0	
0	
1	
1	
0	
0	
1	
2	
0	
1	
0	
0	
0	
0	
0	
2	
0	
0	
1	
2	
2	
0	
2	
0	
0	
2	
1	
1	
1	
0	
0	
2	
0	
1	
0	
0	
0	
2	
0	
1	
0	
0	
1	
2	
0	
0	
0	
1	
1	
0	
2	
0	
0	
0	
1	
2	
0	
1	
2	
0	
0	
0	
0	
0	
0	
0	
1	
0	
1	
1	
1	
0	
0	
1	
1	
0	
1	
1	
0	
0	
0	
0	
1	
2	
0	
1	
0	
0	
1	
1	
0	
0	
1	
0	
0	
0	
0	
0	
1	
0	
0	
0	
0	
1	
0	
1	
1	
3	
0	
0	
1	
1	
0	
1	
0	
1	
2	
1	
1	
1	
0	
0	
1	
0	
1	
1	
0	
1	
1	
0	
0	
0	
0	
1	
0	
0	
0	
0	
0	
0	
0	
2	
1	
0	
1	
0	
1	
1	
0	
0	
0	
0	
1	
2	
0	
0	
0	
0	
0	
0	
0	
0	
0	
0	
3	
2	
1	
2	
0	
1	
0	
0	
0	
1	
2	
1	
1	
1	
1	
1	
0	
0	
1	
0	
2	
2	
0	
1	
1	
1	
0	
1	
1	
0	
0	
2	
1	
0	
2	
0	
0	
0	
0	
0	
0	
1	
0	
0	
0	
1	
0	
1	
1	
1	
0	
0	
1	
0	
1	
0	
0	
1	
0	
0	
1	
1	
0	
2	
0	
0	
0	
0	
0	
1	
0	
0	
1	
1	
1	
0	
1	
0	
0	
0	
0	
2	
0	
1	
0	
3	
0	
0	
1	
1	
2	
0	
1	
1	
0	
0	
1	
1	
0	
0	
0	
1	
0	
0	
0	
0	
0	
1	
1	
0	
0	
2	
1	
0	
2	
1	
1	
0	
1	
0	
0	
1	
1	
0	
0	
