#PicoHarp 300  Histogram Data			04/29/2022 02:35:38 PM
#channels per curve
15625
#display curve no.
0	
#memory block no.
0	
#ns/channel
0.0320	
#counts
3	
8	
2	
9	
3	
8	
7	
3	
7	
2	
8	
12	
14	
5	
10	
4	
3	
11	
8	
5	
7	
5	
3	
12	
8	
7	
4	
6	
5	
13	
6	
7	
6	
9	
8	
6	
8	
5	
7	
8	
7	
5	
5	
6	
5	
10	
4	
7	
5	
6	
9	
6	
4	
6	
4	
11	
8	
9	
7	
8	
8	
8	
5	
11	
7	
5	
5	
6	
9	
6	
3	
4	
7	
9	
7	
7	
8	
8	
4	
5	
4	
7	
5	
8	
11	
5	
3	
8	
6	
4	
10	
5	
5	
0	
4	
7	
9	
4	
5	
9	
5	
4	
4	
6	
5	
7	
3	
8	
9	
12	
11	
5	
8	
3	
11	
2	
3	
7	
7	
9	
6	
7	
5	
6	
3	
6	
9	
5	
10	
6	
7	
1	
6	
8	
3	
4	
5	
6	
4	
13	
5	
9	
4	
7	
7	
9	
5	
2	
11	
7	
7	
12	
11	
10	
10	
7	
7	
10	
4	
5	
5	
11	
10	
6	
9	
7	
5	
10	
11	
4	
3	
7	
6	
7	
6	
4	
5	
3	
3	
7	
5	
6	
12	
5	
9	
8	
3	
3	
7	
10	
8	
7	
9	
5	
6	
4	
7	
8	
4	
7	
5	
8	
9	
7	
5	
8	
4	
7	
6	
9	
5	
4	
6	
9	
6	
8	
7	
5	
5	
8	
4	
3	
7	
4	
8	
5	
5	
6	
4	
10	
8	
6	
4	
11	
9	
4	
7	
6	
7	
7	
6	
8	
7	
4	
9	
8	
9	
4	
8	
4	
4	
9	
4	
10	
7	
3	
5	
7	
6	
10	
5	
9	
5	
9	
4	
10	
8	
8	
6	
7	
6	
6	
4	
7	
4	
6	
10	
4	
8	
5	
4	
7	
9	
8	
6	
4	
2	
3	
6	
6	
4	
8	
5	
7	
8	
7	
7	
5	
4	
6	
4	
3	
7	
13	
8	
6	
7	
3	
11	
8	
3	
3	
6	
10	
12	
10	
3	
7	
3	
10	
5	
7	
7	
5	
15	
1	
13	
11	
7	
10	
4	
5	
16	
9	
6	
4	
8	
5	
7	
5	
5	
8	
8	
7	
8	
14	
5	
4	
6	
5	
7	
7	
8	
6	
8	
7	
6	
3	
7	
10	
7	
4	
11	
9	
9	
5	
7	
4	
3	
9	
8	
6	
5	
9	
5	
7	
6	
4	
13	
8	
9	
3	
8	
7	
6	
5	
5	
6	
7	
8	
3	
5	
13	
4	
4	
5	
8	
7	
12	
8	
7	
3	
4	
7	
7	
2	
7	
9	
6	
5	
1	
7	
7	
2	
7	
5	
9	
8	
4	
9	
7	
6	
4	
4	
4	
8	
7	
5	
2	
6	
6	
8	
5	
7	
7	
9	
7	
12	
9	
4	
8	
11	
10	
7	
5	
6	
5	
4	
4	
6	
13	
9	
5	
5	
8	
6	
6	
6	
10	
7	
8	
11	
13	
4	
6	
4	
6	
8	
8	
3	
5	
7	
10	
7	
6	
3	
8	
8	
7	
7	
7	
6	
12	
10	
11	
4	
5	
7	
3	
4	
3	
9	
3	
4	
4	
8	
6	
6	
5	
8	
11	
13	
2	
9	
8	
6	
4	
8	
4	
6	
7	
4	
8	
11	
8	
4	
5	
10	
6	
5	
7	
11	
9	
6	
6	
5	
6	
5	
9	
5	
7	
6	
7	
5	
5	
3	
5	
10	
7	
2	
5	
6	
2	
6	
9	
8	
4	
9	
2	
1	
10	
6	
11	
5	
5	
5	
11	
4	
2	
8	
7	
7	
3	
4	
2	
4	
7	
9	
7	
6	
7	
10	
6	
3	
5	
10	
6	
11	
6	
5	
4	
10	
7	
4	
10	
11	
5	
10	
9	
5	
3	
5	
4	
5	
8	
12	
4	
10	
10	
9	
7	
7	
8	
8	
10	
9	
6	
9	
5	
8	
13	
5	
5	
5	
5	
3	
13	
9	
1	
8	
3	
2	
11	
4	
3	
10	
7	
4	
7	
6	
8	
6	
4	
6	
11	
6	
3	
5	
9	
5	
6	
4	
11	
4	
2	
7	
9	
4	
7	
2	
8	
3	
6	
8	
7	
8	
6	
6	
10	
5	
7	
3	
8	
11	
9	
9	
3	
9	
10	
7	
4	
7	
8	
7	
6	
10	
8	
6	
9	
11	
3	
8	
2	
6	
6	
4	
5	
7	
4	
8	
0	
8	
11	
9	
8	
4	
3	
7	
5	
7	
7	
10	
11	
7	
9	
8	
3	
11	
9	
9	
4	
6	
3	
8	
2	
12	
9	
10	
5	
5	
7	
9	
7	
7	
4	
4	
3	
4	
7	
7	
7	
5	
9	
5	
10	
5	
7	
7	
4	
7	
6	
3	
4	
8	
3	
13	
10	
5	
3	
8	
6	
6	
7	
3	
5	
7	
4	
9	
6	
7	
10	
8	
8	
3	
6	
4	
10	
7	
5	
5	
6	
10	
11	
8	
7	
7	
9	
9	
9	
7	
10	
5	
10	
6	
9	
6	
3	
6	
4	
5	
5	
6	
10	
4	
4	
5	
9	
4	
2	
3	
3	
6	
9	
3	
6	
6	
9	
9	
4	
6	
7	
6	
6	
9	
5	
6	
7	
8	
6	
6	
4	
5	
6	
6	
11	
10	
4	
2	
5	
13	
5	
6	
4	
5	
7	
3	
5	
4	
7	
5	
6	
6	
5	
11	
5	
2	
5	
2	
7	
5	
5	
1	
1	
2	
7	
3	
5	
10	
10	
5	
9	
5	
7	
9	
7	
7	
8	
10	
2	
3	
4	
12	
5	
5	
7	
7	
7	
7	
9	
3	
6	
7	
7	
7	
11	
5	
6	
5	
8	
5	
4	
7	
5	
9	
7	
6	
3	
6	
9	
3	
3	
10	
7	
5	
11	
9	
5	
4	
7	
8	
3	
2	
8	
2	
6	
2	
4	
9	
8	
9	
7	
9	
5	
2	
6	
6	
5	
5	
3	
7	
8	
4	
7	
15	
6	
3	
4	
5	
9	
10	
8	
8	
9	
7	
14	
5	
5	
7	
6	
6	
4	
3	
8	
11	
6	
5	
5	
5	
4	
6	
9	
3	
6	
4	
5	
8	
8	
4	
4	
6	
4	
11	
7	
5	
3	
1	
7	
7	
7	
12	
6	
8	
14	
5	
21	
25	
33	
29	
40	
49	
59	
57	
67	
55	
67	
81	
73	
85	
71	
86	
87	
84	
100	
95	
89	
68	
92	
88	
81	
97	
93	
84	
89	
70	
85	
98	
71	
73	
72	
68	
62	
77	
72	
66	
82	
81	
86	
77	
72	
88	
75	
67	
85	
59	
71	
73	
83	
71	
70	
66	
80	
65	
77	
66	
79	
62	
71	
74	
70	
55	
63	
68	
62	
71	
65	
64	
65	
74	
77	
62	
54	
72	
71	
62	
75	
74	
53	
76	
66	
66	
72	
76	
70	
54	
68	
86	
70	
65	
79	
66	
56	
72	
63	
79	
58	
75	
70	
69	
73	
75	
57	
62	
62	
72	
58	
66	
78	
55	
73	
68	
68	
60	
58	
73	
59	
68	
72	
81	
61	
62	
54	
77	
67	
57	
59	
68	
60	
67	
50	
69	
73	
58	
63	
84	
77	
60	
71	
54	
70	
66	
64	
49	
68	
60	
80	
57	
69	
52	
50	
51	
55	
50	
67	
60	
60	
69	
64	
74	
55	
71	
72	
62	
64	
61	
61	
51	
62	
48	
74	
59	
68	
54	
61	
60	
57	
58	
47	
64	
61	
69	
58	
63	
62	
56	
76	
66	
64	
67	
63	
56	
52	
75	
54	
64	
42	
52	
59	
63	
65	
55	
58	
53	
54	
66	
57	
58	
61	
59	
55	
60	
53	
63	
66	
66	
54	
64	
68	
66	
48	
79	
56	
64	
72	
48	
53	
58	
52	
51	
62	
56	
59	
47	
58	
57	
58	
53	
66	
57	
57	
65	
60	
65	
58	
67	
68	
54	
60	
58	
58	
51	
50	
64	
57	
65	
58	
52	
54	
54	
63	
56	
73	
52	
52	
63	
69	
50	
59	
69	
62	
60	
62	
63	
70	
52	
59	
54	
48	
58	
43	
49	
58	
48	
54	
65	
60	
61	
43	
65	
52	
56	
63	
56	
52	
50	
63	
52	
56	
61	
62	
52	
58	
56	
59	
55	
63	
58	
49	
48	
49	
56	
66	
58	
51	
50	
59	
50	
72	
66	
58	
67	
53	
44	
55	
65	
46	
60	
45	
50	
55	
58	
57	
57	
51	
56	
52	
48	
50	
55	
68	
47	
51	
63	
68	
59	
47	
60	
54	
61	
58	
46	
45	
40	
64	
53	
63	
41	
63	
55	
51	
58	
63	
68	
56	
54	
61	
46	
51	
66	
52	
39	
58	
63	
53	
48	
53	
58	
48	
47	
55	
53	
56	
47	
62	
50	
41	
50	
38	
44	
51	
57	
49	
49	
53	
41	
54	
51	
45	
70	
59	
42	
62	
43	
69	
54	
44	
60	
53	
53	
46	
50	
65	
65	
56	
49	
59	
66	
38	
69	
52	
43	
41	
40	
44	
45	
42	
57	
52	
44	
46	
47	
47	
58	
41	
37	
57	
64	
59	
45	
60	
38	
55	
47	
53	
62	
51	
48	
44	
63	
50	
37	
52	
44	
44	
51	
45	
58	
38	
45	
49	
41	
45	
52	
55	
53	
67	
50	
42	
51	
46	
36	
46	
40	
52	
60	
39	
56	
41	
41	
47	
44	
53	
43	
44	
57	
42	
49	
65	
50	
39	
43	
54	
52	
49	
54	
47	
45	
51	
70	
46	
40	
56	
44	
60	
49	
45	
48	
54	
53	
44	
44	
56	
45	
40	
62	
43	
40	
37	
52	
50	
52	
46	
46	
55	
34	
51	
49	
53	
60	
62	
42	
58	
59	
60	
39	
53	
43	
44	
46	
41	
49	
50	
63	
49	
54	
46	
49	
36	
48	
46	
45	
48	
38	
50	
50	
53	
54	
57	
44	
41	
49	
41	
37	
59	
49	
50	
41	
58	
45	
55	
56	
28	
59	
45	
50	
44	
48	
52	
54	
53	
46	
42	
57	
51	
56	
39	
57	
56	
55	
40	
42	
57	
41	
44	
48	
46	
42	
54	
50	
42	
55	
56	
39	
37	
43	
43	
37	
37	
56	
56	
43	
38	
47	
40	
62	
39	
43	
41	
37	
36	
42	
44	
55	
53	
49	
53	
40	
53	
37	
45	
50	
35	
40	
45	
43	
55	
47	
50	
50	
38	
53	
37	
42	
53	
52	
42	
46	
45	
44	
60	
44	
40	
39	
41	
48	
57	
46	
44	
36	
45	
42	
34	
60	
57	
48	
47	
57	
39	
50	
47	
38	
47	
49	
45	
44	
49	
41	
45	
41	
45	
48	
42	
44	
40	
48	
44	
44	
48	
41	
41	
47	
50	
39	
40	
45	
39	
47	
35	
45	
45	
45	
44	
44	
41	
44	
40	
38	
42	
46	
45	
49	
41	
42	
36	
42	
36	
51	
56	
40	
38	
31	
41	
42	
38	
50	
44	
42	
54	
46	
46	
43	
38	
34	
34	
36	
54	
31	
41	
47	
48	
47	
49	
48	
51	
39	
40	
41	
38	
52	
52	
39	
40	
31	
40	
44	
47	
44	
35	
44	
45	
38	
40	
47	
48	
47	
43	
40	
51	
48	
34	
43	
52	
39	
36	
36	
60	
53	
38	
49	
28	
45	
42	
38	
49	
42	
56	
39	
34	
41	
52	
31	
43	
39	
49	
51	
45	
48	
53	
43	
42	
48	
38	
45	
55	
37	
43	
41	
35	
40	
41	
47	
43	
41	
42	
36	
45	
49	
41	
34	
32	
41	
38	
36	
51	
39	
51	
45	
51	
44	
56	
43	
38	
37	
50	
47	
42	
45	
44	
50	
34	
45	
38	
51	
47	
38	
43	
55	
23	
41	
41	
31	
51	
40	
47	
34	
54	
32	
56	
36	
39	
47	
32	
46	
48	
41	
35	
42	
54	
46	
38	
44	
41	
41	
46	
38	
47	
44	
49	
47	
43	
36	
50	
36	
53	
33	
49	
43	
42	
43	
37	
38	
39	
40	
43	
42	
56	
35	
38	
42	
50	
30	
47	
33	
46	
46	
53	
32	
40	
36	
31	
50	
42	
43	
43	
44	
40	
31	
46	
38	
45	
42	
43	
43	
60	
42	
46	
40	
40	
40	
47	
40	
44	
45	
40	
43	
33	
49	
43	
49	
49	
50	
37	
41	
39	
35	
42	
48	
45	
43	
45	
38	
43	
47	
51	
32	
35	
36	
45	
44	
45	
46	
28	
45	
49	
46	
41	
37	
44	
33	
29	
42	
57	
47	
41	
45	
41	
45	
38	
52	
50	
44	
43	
44	
49	
43	
52	
42	
43	
41	
51	
51	
36	
43	
32	
54	
37	
45	
40	
46	
46	
33	
53	
34	
28	
43	
45	
43	
46	
49	
45	
40	
35	
29	
32	
37	
36	
37	
39	
49	
36	
37	
41	
33	
45	
44	
39	
52	
46	
36	
39	
61	
52	
42	
45	
59	
45	
44	
41	
22	
42	
50	
39	
62	
51	
36	
41	
46	
44	
45	
43	
29	
34	
34	
43	
39	
40	
44	
51	
32	
46	
38	
51	
42	
43	
29	
32	
40	
35	
35	
52	
42	
40	
44	
47	
43	
30	
35	
46	
38	
45	
43	
35	
50	
38	
44	
45	
40	
28	
40	
35	
43	
40	
38	
37	
48	
44	
52	
46	
38	
38	
45	
27	
40	
43	
44	
47	
37	
49	
44	
43	
46	
41	
37	
34	
43	
48	
41	
35	
39	
34	
39	
33	
46	
42	
36	
45	
29	
37	
39	
38	
34	
42	
47	
37	
27	
37	
27	
39	
50	
37	
35	
47	
38	
41	
46	
42	
41	
47	
32	
35	
39	
43	
35	
40	
37	
38	
42	
47	
32	
34	
44	
33	
46	
40	
36	
32	
38	
31	
42	
38	
34	
38	
32	
44	
33	
47	
30	
34	
40	
31	
33	
35	
34	
45	
31	
35	
35	
40	
39	
38	
36	
42	
47	
40	
43	
37	
43	
38	
35	
40	
47	
34	
37	
52	
39	
45	
37	
32	
47	
37	
34	
40	
50	
43	
46	
46	
39	
33	
47	
29	
39	
40	
38	
38	
37	
32	
42	
36	
38	
49	
37	
45	
43	
51	
30	
35	
35	
27	
41	
33	
35	
35	
39	
42	
41	
36	
31	
32	
47	
36	
40	
45	
36	
47	
33	
38	
32	
41	
17	
30	
33	
34	
32	
42	
44	
29	
41	
36	
36	
46	
33	
37	
44	
37	
36	
42	
30	
32	
31	
43	
49	
42	
40	
41	
32	
43	
40	
36	
34	
41	
42	
42	
42	
33	
42	
40	
46	
44	
52	
43	
45	
35	
37	
37	
34	
39	
32	
30	
46	
49	
35	
43	
33	
25	
39	
31	
39	
37	
44	
44	
38	
33	
38	
46	
42	
35	
38	
35	
34	
44	
50	
43	
30	
31	
46	
46	
42	
34	
42	
47	
34	
46	
32	
48	
44	
30	
36	
35	
39	
42	
39	
36	
34	
44	
40	
50	
32	
34	
32	
44	
48	
32	
38	
33	
36	
42	
40	
36	
34	
30	
39	
32	
37	
46	
33	
28	
42	
43	
36	
31	
40	
31	
26	
35	
40	
38	
29	
42	
35	
44	
37	
38	
41	
29	
29	
45	
45	
35	
42	
36	
37	
40	
38	
34	
37	
34	
37	
43	
30	
39	
32	
31	
38	
41	
32	
51	
36	
41	
36	
45	
38	
42	
32	
39	
38	
32	
37	
45	
38	
24	
36	
32	
40	
34	
47	
43	
45	
24	
33	
27	
48	
45	
35	
38	
34	
41	
35	
49	
30	
36	
32	
47	
46	
44	
33	
49	
45	
30	
37	
25	
38	
43	
38	
44	
32	
37	
30	
38	
49	
35	
37	
26	
41	
37	
45	
35	
36	
42	
37	
26	
29	
30	
33	
32	
41	
29	
39	
38	
34	
40	
36	
48	
33	
28	
44	
40	
32	
41	
32	
38	
30	
31	
33	
44	
43	
41	
38	
39	
34	
40	
25	
33	
45	
42	
33	
43	
53	
33	
30	
34	
32	
29	
42	
33	
28	
31	
28	
26	
30	
38	
27	
43	
39	
44	
37	
35	
30	
39	
32	
30	
46	
33	
38	
35	
30	
42	
34	
34	
34	
35	
47	
38	
28	
41	
30	
42	
47	
45	
32	
36	
38	
45	
36	
33	
31	
36	
28	
43	
41	
38	
38	
35	
34	
32	
28	
38	
31	
36	
30	
42	
32	
36	
36	
37	
37	
44	
32	
33	
28	
33	
32	
31	
27	
26	
27	
44	
29	
36	
54	
32	
46	
36	
27	
32	
32	
39	
32	
26	
35	
30	
39	
32	
34	
39	
47	
31	
30	
41	
30	
19	
40	
32	
39	
35	
37	
42	
25	
29	
37	
28	
29	
29	
33	
22	
29	
27	
40	
41	
31	
31	
35	
34	
25	
25	
34	
36	
35	
32	
22	
31	
40	
32	
32	
42	
26	
36	
30	
40	
36	
28	
45	
39	
34	
45	
38	
42	
37	
27	
51	
22	
40	
26	
30	
37	
36	
40	
24	
28	
19	
37	
39	
33	
30	
37	
44	
25	
33	
40	
31	
38	
33	
40	
40	
25	
32	
29	
28	
32	
24	
29	
34	
35	
33	
33	
32	
42	
40	
44	
32	
35	
26	
44	
28	
39	
37	
33	
41	
24	
27	
33	
50	
36	
30	
37	
33	
31	
35	
38	
34	
29	
44	
31	
31	
25	
32	
32	
26	
36	
36	
32	
20	
40	
43	
44	
28	
31	
38	
38	
28	
31	
41	
23	
40	
30	
31	
42	
37	
48	
40	
27	
27	
42	
33	
40	
40	
39	
33	
31	
30	
35	
31	
40	
24	
34	
48	
41	
32	
35	
30	
44	
24	
32	
27	
36	
35	
42	
35	
37	
42	
41	
34	
25	
26	
31	
28	
25	
36	
34	
20	
26	
30	
49	
40	
40	
40	
30	
24	
31	
26	
24	
25	
29	
43	
30	
28	
28	
31	
33	
34	
22	
31	
43	
34	
37	
47	
28	
37	
40	
27	
32	
32	
42	
19	
32	
56	
34	
30	
32	
42	
31	
29	
41	
30	
23	
33	
36	
20	
30	
35	
32	
21	
25	
33	
36	
18	
43	
25	
26	
35	
46	
40	
33	
32	
27	
36	
30	
24	
40	
37	
42	
42	
26	
38	
33	
32	
27	
32	
32	
28	
19	
27	
24	
31	
21	
23	
27	
33	
21	
34	
44	
28	
38	
34	
21	
35	
36	
32	
31	
36	
28	
26	
37	
26	
31	
30	
33	
34	
27	
31	
25	
36	
29	
22	
31	
29	
30	
36	
33	
28	
25	
28	
30	
37	
30	
28	
33	
28	
21	
27	
37	
41	
32	
32	
36	
22	
39	
29	
38	
36	
29	
39	
34	
37	
33	
35	
22	
27	
27	
27	
37	
43	
38	
33	
34	
23	
29	
33	
21	
30	
28	
25	
35	
22	
32	
38	
23	
36	
31	
34	
28	
33	
30	
20	
33	
26	
27	
34	
28	
25	
31	
33	
34	
32	
33	
27	
20	
35	
27	
32	
30	
43	
29	
34	
29	
31	
23	
29	
30	
35	
29	
42	
39	
30	
30	
25	
29	
30	
34	
26	
38	
24	
27	
25	
30	
39	
37	
34	
30	
35	
37	
25	
38	
30	
33	
43	
37	
32	
37	
32	
24	
39	
34	
31	
27	
30	
29	
36	
28	
41	
31	
29	
26	
37	
23	
33	
43	
33	
29	
28	
32	
35	
26	
31	
28	
33	
32	
35	
35	
35	
34	
38	
35	
30	
29	
30	
37	
28	
27	
38	
33	
22	
37	
39	
31	
34	
39	
36	
46	
30	
39	
28	
31	
27	
50	
35	
19	
28	
31	
20	
27	
21	
38	
39	
38	
37	
33	
31	
36	
21	
32	
36	
37	
39	
24	
36	
34	
35	
27	
28	
35	
31	
39	
37	
26	
21	
42	
37	
21	
24	
38	
32	
36	
34	
40	
32	
25	
23	
34	
27	
26	
38	
35	
32	
38	
31	
32	
32	
29	
27	
28	
37	
28	
32	
27	
35	
34	
26	
33	
33	
36	
28	
37	
32	
29	
34	
43	
31	
34	
32	
30	
34	
25	
35	
32	
33	
19	
32	
40	
35	
36	
31	
31	
32	
28	
29	
35	
35	
32	
33	
35	
32	
37	
23	
28	
30	
29	
28	
31	
32	
24	
31	
27	
39	
34	
31	
27	
31	
34	
29	
28	
27	
25	
32	
30	
31	
35	
30	
38	
28	
30	
29	
36	
35	
33	
28	
38	
25	
26	
28	
26	
39	
29	
31	
25	
25	
24	
31	
32	
36	
30	
29	
25	
26	
27	
27	
43	
25	
26	
40	
32	
33	
28	
28	
16	
34	
42	
22	
28	
45	
35	
28	
22	
31	
29	
31	
36	
33	
31	
24	
21	
38	
32	
29	
29	
33	
35	
31	
27	
24	
28	
23	
33	
29	
24	
35	
37	
34	
38	
29	
33	
28	
31	
38	
32	
40	
24	
27	
27	
33	
40	
21	
28	
27	
24	
34	
21	
37	
31	
28	
21	
47	
36	
30	
33	
33	
35	
22	
33	
31	
25	
27	
29	
38	
33	
25	
48	
28	
37	
22	
26	
27	
36	
27	
29	
25	
31	
32	
34	
36	
24	
37	
21	
32	
34	
34	
24	
37	
35	
32	
32	
33	
26	
31	
30	
25	
28	
33	
33	
27	
33	
31	
23	
28	
34	
31	
15	
24	
35	
22	
23	
21	
22	
29	
34	
24	
30	
28	
31	
35	
29	
26	
25	
40	
36	
24	
42	
26	
34	
30	
37	
27	
35	
43	
24	
41	
41	
30	
21	
38	
23	
24	
20	
27	
30	
28	
31	
27	
30	
35	
26	
42	
39	
29	
29	
29	
28	
24	
27	
23	
33	
31	
25	
35	
39	
29	
26	
37	
40	
32	
28	
36	
29	
30	
22	
33	
30	
22	
27	
32	
25	
41	
45	
27	
28	
29	
40	
24	
29	
37	
36	
30	
21	
35	
24	
34	
23	
31	
19	
33	
29	
31	
25	
33	
26	
26	
25	
27	
27	
30	
32	
34	
33	
28	
23	
38	
23	
24	
25	
25	
27	
31	
31	
21	
26	
24	
28	
24	
28	
32	
27	
31	
29	
30	
19	
21	
33	
26	
26	
30	
29	
26	
19	
29	
30	
26	
32	
17	
27	
31	
36	
17	
28	
25	
34	
27	
34	
29	
29	
20	
27	
29	
20	
30	
33	
24	
32	
24	
17	
37	
23	
15	
28	
24	
24	
36	
19	
30	
24	
34	
31	
17	
26	
26	
21	
26	
29	
28	
16	
27	
34	
32	
30	
35	
37	
33	
32	
30	
29	
24	
36	
26	
24	
27	
26	
37	
31	
32	
41	
32	
28	
23	
27	
21	
21	
35	
30	
21	
31	
37	
25	
33	
28	
20	
36	
28	
31	
35	
30	
35	
29	
23	
24	
32	
26	
25	
27	
21	
22	
24	
19	
23	
23	
45	
38	
22	
26	
23	
22	
19	
21	
18	
26	
28	
14	
29	
20	
33	
18	
30	
24	
41	
25	
29	
32	
23	
25	
27	
21	
21	
29	
35	
23	
29	
22	
18	
26	
27	
27	
29	
27	
32	
22	
27	
25	
27	
22	
35	
19	
24	
31	
29	
21	
40	
22	
29	
33	
25	
37	
30	
25	
34	
26	
33	
27	
26	
22	
20	
31	
18	
27	
33	
30	
33	
23	
25	
27	
38	
26	
28	
22	
15	
20	
18	
16	
33	
30	
27	
29	
23	
31	
32	
28	
29	
25	
29	
19	
26	
33	
33	
27	
20	
28	
30	
36	
24	
28	
28	
30	
32	
32	
25	
40	
17	
26	
26	
37	
26	
27	
36	
24	
21	
38	
24	
28	
37	
21	
32	
29	
23	
36	
27	
25	
33	
28	
28	
28	
25	
29	
18	
24	
35	
25	
33	
27	
28	
28	
26	
20	
26	
23	
28	
29	
36	
20	
26	
33	
21	
30	
21	
23	
29	
22	
33	
29	
19	
31	
33	
27	
24	
26	
28	
23	
27	
23	
30	
23	
34	
29	
25	
19	
28	
23	
20	
38	
35	
31	
23	
24	
31	
30	
30	
31	
33	
27	
30	
35	
27	
30	
31	
33	
36	
29	
26	
22	
32	
26	
26	
26	
27	
38	
29	
25	
35	
34	
23	
20	
27	
36	
24	
29	
27	
36	
30	
23	
19	
20	
31	
30	
25	
36	
26	
24	
30	
35	
31	
37	
16	
30	
34	
22	
32	
32	
31	
24	
23	
26	
24	
25	
28	
30	
24	
31	
26	
31	
27	
34	
30	
24	
25	
29	
18	
33	
33	
21	
30	
25	
28	
28	
34	
29	
35	
28	
33	
25	
26	
17	
23	
33	
27	
26	
18	
34	
23	
32	
25	
28	
24	
28	
34	
32	
29	
32	
29	
34	
28	
19	
32	
27	
25	
18	
30	
24	
17	
22	
30	
25	
27	
25	
28	
28	
30	
20	
22	
19	
24	
28	
42	
21	
29	
22	
24	
21	
31	
39	
36	
23	
33	
29	
28	
24	
24	
18	
27	
39	
27	
27	
25	
22	
20	
31	
26	
28	
28	
18	
26	
30	
20	
23	
19	
21	
31	
24	
21	
32	
37	
28	
27	
27	
30	
37	
24	
21	
18	
24	
29	
24	
32	
34	
23	
27	
28	
24	
23	
34	
19	
26	
32	
26	
28	
26	
27	
24	
29	
22	
24	
25	
26	
34	
33	
27	
25	
24	
19	
20	
33	
22	
25	
23	
16	
24	
17	
29	
26	
17	
30	
24	
28	
21	
22	
25	
25	
28	
27	
24	
27	
30	
26	
24	
28	
21	
15	
33	
32	
25	
30	
18	
26	
25	
21	
29	
24	
35	
22	
27	
35	
29	
29	
26	
42	
25	
18	
24	
24	
33	
31	
20	
28	
28	
27	
26	
22	
20	
24	
27	
32	
33	
12	
26	
18	
28	
28	
24	
25	
30	
28	
23	
24	
18	
23	
25	
16	
22	
25	
24	
30	
23	
26	
17	
27	
22	
25	
28	
20	
39	
24	
18	
20	
29	
30	
26	
17	
33	
21	
26	
35	
34	
21	
21	
25	
28	
22	
28	
26	
27	
29	
26	
26	
21	
23	
28	
23	
32	
27	
24	
29	
25	
24	
28	
27	
26	
21	
19	
18	
23	
25	
17	
28	
27	
32	
23	
19	
30	
23	
24	
28	
17	
27	
25	
23	
24	
30	
26	
25	
18	
21	
16	
26	
23	
19	
28	
16	
29	
23	
25	
20	
12	
22	
34	
19	
18	
20	
25	
32	
22	
23	
21	
22	
31	
17	
26	
19	
25	
29	
32	
22	
31	
34	
14	
25	
28	
28	
30	
27	
23	
26	
20	
35	
16	
27	
19	
21	
30	
25	
26	
25	
28	
28	
24	
27	
23	
26	
28	
18	
26	
18	
30	
31	
20	
26	
31	
29	
28	
21	
27	
20	
18	
24	
26	
26	
25	
28	
24	
28	
27	
27	
16	
16	
21	
21	
25	
18	
17	
26	
29	
26	
21	
22	
31	
29	
19	
30	
16	
25	
26	
19	
28	
25	
28	
32	
16	
30	
29	
35	
24	
23	
27	
23	
35	
23	
24	
23	
21	
28	
31	
17	
25	
20	
27	
25	
29	
27	
34	
23	
26	
22	
28	
21	
27	
24	
21	
21	
25	
22	
19	
21	
23	
20	
26	
24	
23	
29	
17	
24	
30	
33	
25	
26	
19	
15	
33	
20	
17	
35	
28	
24	
26	
23	
28	
23	
29	
26	
14	
25	
20	
31	
27	
34	
22	
23	
27	
22	
28	
25	
22	
24	
25	
34	
23	
13	
23	
17	
29	
26	
26	
25	
24	
26	
23	
20	
24	
20	
19	
21	
30	
22	
19	
24	
22	
17	
25	
17	
29	
30	
24	
15	
28	
27	
19	
19	
18	
29	
25	
32	
23	
32	
32	
17	
26	
16	
21	
19	
18	
22	
16	
18	
20	
42	
26	
25	
26	
16	
22	
23	
23	
24	
19	
30	
22	
18	
30	
29	
35	
32	
17	
25	
28	
25	
19	
34	
21	
28	
27	
19	
24	
19	
30	
15	
24	
23	
18	
25	
20	
15	
30	
20	
23	
19	
22	
33	
24	
21	
31	
16	
17	
30	
32	
29	
27	
19	
25	
24	
22	
23	
20	
23	
24	
28	
13	
25	
18	
24	
29	
16	
22	
29	
22	
18	
26	
26	
25	
27	
30	
24	
26	
31	
24	
18	
19	
20	
23	
19	
34	
29	
11	
19	
24	
19	
35	
29	
15	
31	
25	
27	
27	
23	
29	
26	
22	
25	
20	
25	
27	
20	
21	
34	
30	
27	
29	
17	
22	
15	
22	
22	
22	
22	
19	
19	
31	
15	
25	
25	
27	
29	
27	
26	
17	
26	
24	
33	
20	
25	
35	
20	
23	
24	
22	
25	
17	
21	
30	
19	
27	
22	
21	
18	
23	
19	
22	
18	
33	
20	
23	
19	
15	
15	
25	
22	
24	
26	
16	
24	
23	
25	
25	
26	
33	
28	
26	
27	
24	
22	
20	
22	
26	
25	
25	
18	
20	
21	
22	
18	
19	
31	
25	
27	
25	
22	
33	
24	
31	
14	
32	
23	
21	
18	
36	
20	
31	
19	
18	
26	
22	
14	
21	
20	
24	
25	
24	
30	
21	
25	
14	
23	
21	
20	
29	
26	
22	
26	
23	
19	
19	
32	
21	
16	
26	
25	
19	
22	
27	
20	
18	
15	
27	
26	
28	
24	
24	
24	
20	
30	
30	
21	
28	
19	
24	
24	
24	
25	
17	
19	
19	
20	
26	
21	
25	
20	
26	
26	
26	
23	
23	
22	
28	
23	
21	
21	
25	
17	
23	
21	
25	
31	
20	
20	
21	
23	
27	
17	
24	
29	
16	
28	
27	
24	
23	
30	
30	
25	
22	
19	
28	
20	
23	
22	
15	
17	
18	
20	
26	
26	
27	
29	
21	
30	
19	
34	
20	
17	
28	
28	
26	
21	
28	
18	
28	
23	
23	
25	
25	
24	
27	
33	
22	
23	
17	
25	
25	
25	
26	
16	
27	
21	
23	
27	
22	
29	
29	
23	
18	
27	
17	
25	
27	
24	
33	
20	
22	
23	
22	
24	
18	
22	
22	
26	
28	
17	
35	
25	
19	
18	
22	
34	
29	
24	
23	
30	
27	
27	
19	
30	
23	
22	
22	
28	
24	
20	
24	
25	
18	
21	
30	
26	
22	
31	
26	
19	
16	
18	
31	
20	
26	
16	
22	
24	
25	
19	
24	
30	
21	
21	
27	
20	
22	
20	
16	
22	
18	
33	
15	
20	
22	
18	
17	
25	
23	
23	
25	
18	
26	
28	
29	
22	
27	
27	
23	
24	
21	
24	
26	
27	
16	
27	
30	
25	
25	
17	
19	
36	
23	
31	
18	
20	
22	
19	
24	
20	
19	
24	
14	
19	
22	
20	
17	
25	
23	
27	
31	
31	
25	
22	
21	
24	
14	
24	
23	
27	
13	
26	
22	
31	
20	
28	
20	
26	
21	
20	
22	
18	
22	
20	
29	
27	
18	
16	
25	
29	
19	
28	
19	
22	
16	
17	
18	
25	
16	
24	
24	
28	
20	
34	
32	
14	
23	
26	
19	
22	
23	
21	
14	
25	
24	
24	
22	
18	
28	
20	
25	
25	
22	
21	
24	
13	
25	
23	
7	
24	
20	
21	
24	
24	
19	
33	
14	
23	
28	
24	
28	
19	
15	
22	
18	
18	
31	
23	
21	
22	
12	
28	
26	
27	
21	
23	
23	
25	
16	
22	
25	
22	
20	
24	
17	
17	
16	
18	
26	
16	
18	
23	
20	
21	
26	
16	
23	
20	
20	
21	
22	
24	
24	
25	
21	
22	
24	
28	
19	
27	
22	
13	
21	
27	
13	
24	
20	
30	
21	
17	
20	
19	
20	
14	
18	
23	
20	
28	
17	
19	
16	
14	
27	
21	
17	
24	
26	
23	
26	
26	
26	
22	
27	
20	
27	
27	
31	
28	
19	
15	
29	
20	
25	
24	
23	
33	
18	
21	
24	
17	
16	
22	
28	
23	
21	
27	
20	
23	
17	
14	
15	
22	
26	
26	
20	
19	
18	
22	
14	
15	
30	
14	
28	
23	
20	
13	
30	
19	
19	
12	
13	
25	
20	
22	
13	
27	
23	
19	
18	
25	
19	
20	
23	
18	
22	
22	
25	
24	
21	
23	
22	
20	
29	
13	
18	
28	
16	
22	
26	
26	
21	
26	
15	
17	
14	
22	
25	
17	
20	
20	
19	
27	
21	
16	
20	
23	
21	
23	
23	
26	
21	
19	
21	
23	
25	
19	
16	
16	
21	
21	
27	
30	
20	
14	
20	
20	
28	
21	
20	
21	
27	
19	
27	
12	
27	
23	
24	
21	
19	
22	
24	
21	
17	
32	
32	
23	
22	
18	
26	
13	
23	
17	
23	
18	
18	
25	
23	
29	
18	
22	
17	
13	
22	
28	
21	
19	
21	
24	
25	
24	
14	
21	
18	
29	
23	
17	
20	
21	
23	
25	
15	
26	
23	
16	
19	
18	
17	
31	
19	
30	
25	
23	
23	
23	
16	
15	
22	
25	
18	
17	
19	
23	
24	
16	
24	
24	
27	
21	
14	
18	
20	
19	
21	
33	
21	
24	
30	
13	
26	
19	
20	
31	
20	
31	
16	
11	
17	
21	
16	
22	
15	
27	
30	
18	
16	
25	
20	
22	
21	
17	
25	
19	
20	
22	
23	
18	
21	
30	
23	
16	
18	
19	
18	
20	
29	
19	
22	
25	
18	
21	
19	
30	
22	
20	
21	
21	
26	
28	
17	
18	
22	
21	
18	
26	
27	
20	
22	
28	
18	
19	
22	
20	
23	
23	
27	
16	
21	
18	
26	
25	
33	
28	
12	
21	
23	
23	
19	
22	
24	
22	
23	
16	
24	
18	
18	
12	
23	
20	
19	
19	
25	
16	
23	
22	
23	
19	
24	
18	
31	
31	
17	
21	
17	
26	
18	
19	
22	
24	
16	
25	
17	
20	
10	
24	
20	
17	
14	
22	
23	
20	
15	
24	
22	
11	
20	
24	
17	
29	
20	
13	
22	
25	
21	
16	
19	
25	
17	
23	
21	
23	
25	
19	
24	
22	
26	
15	
23	
16	
23	
23	
18	
21	
29	
19	
21	
21	
30	
15	
25	
24	
15	
15	
19	
27	
16	
16	
9	
23	
15	
24	
11	
22	
23	
23	
23	
18	
14	
23	
20	
27	
22	
14	
19	
22	
20	
18	
28	
20	
14	
17	
26	
12	
20	
19	
27	
23	
21	
19	
24	
30	
18	
22	
14	
21	
24	
18	
31	
19	
17	
24	
17	
30	
22	
12	
22	
20	
19	
15	
20	
18	
29	
20	
18	
29	
22	
13	
20	
20	
23	
26	
24	
9	
16	
18	
26	
16	
15	
19	
24	
15	
19	
19	
26	
23	
20	
26	
23	
10	
15	
23	
17	
22	
21	
28	
29	
21	
19	
28	
16	
18	
17	
20	
19	
18	
15	
17	
20	
27	
18	
24	
24	
17	
9	
21	
15	
22	
27	
19	
20	
21	
17	
23	
17	
25	
30	
27	
18	
16	
27	
24	
21	
23	
13	
16	
16	
10	
19	
18	
12	
27	
22	
24	
21	
16	
15	
25	
20	
15	
23	
18	
21	
21	
26	
21	
23	
22	
15	
23	
16	
19	
18	
19	
22	
15	
25	
19	
21	
16	
27	
18	
24	
13	
23	
24	
23	
20	
16	
21	
23	
22	
20	
17	
27	
9	
22	
23	
21	
19	
22	
19	
20	
19	
10	
17	
17	
21	
23	
14	
12	
18	
18	
22	
21	
20	
23	
23	
12	
21	
23	
17	
21	
24	
15	
17	
24	
16	
25	
26	
20	
25	
22	
17	
28	
19	
17	
16	
16	
24	
23	
11	
23	
22	
16	
21	
23	
20	
24	
18	
11	
22	
28	
16	
20	
15	
29	
24	
22	
26	
19	
15	
21	
18	
23	
15	
18	
19	
15	
18	
21	
17	
21	
22	
22	
21	
17	
29	
19	
18	
12	
19	
19	
16	
25	
16	
25	
11	
12	
19	
23	
26	
13	
24	
26	
17	
22	
13	
20	
15	
17	
16	
11	
14	
21	
17	
29	
22	
18	
16	
24	
27	
14	
22	
13	
20	
16	
14	
18	
17	
19	
19	
21	
14	
15	
19	
18	
20	
24	
21	
14	
27	
26	
25	
16	
14	
19	
16	
19	
10	
15	
18	
16	
22	
16	
22	
11	
20	
19	
18	
15	
16	
12	
26	
15	
30	
22	
20	
20	
23	
17	
19	
33	
13	
19	
20	
14	
11	
30	
21	
29	
26	
27	
23	
20	
21	
22	
22	
18	
19	
20	
13	
21	
21	
24	
20	
17	
13	
24	
20	
28	
27	
17	
20	
21	
30	
14	
16	
20	
20	
17	
18	
24	
17	
17	
20	
26	
19	
18	
25	
21	
20	
19	
20	
18	
21	
18	
13	
18	
21	
22	
18	
22	
17	
19	
24	
22	
22	
33	
24	
26	
23	
21	
13	
29	
16	
16	
15	
20	
17	
22	
23	
15	
16	
20	
13	
23	
20	
25	
20	
22	
16	
20	
21	
17	
24	
21	
20	
17	
20	
23	
24	
14	
22	
15	
19	
15	
23	
27	
24	
19	
19	
15	
17	
17	
23	
24	
20	
21	
20	
20	
19	
19	
23	
22	
25	
14	
12	
20	
18	
13	
23	
21	
23	
21	
27	
30	
20	
34	
16	
16	
22	
19	
21	
15	
23	
14	
27	
26	
19	
26	
15	
15	
24	
20	
19	
21	
22	
16	
14	
15	
22	
19	
17	
18	
20	
24	
20	
26	
21	
14	
26	
18	
23	
24	
19	
25	
19	
24	
21	
18	
19	
25	
18	
28	
20	
23	
21	
18	
27	
24	
12	
21	
18	
13	
19	
19	
23	
25	
16	
19	
16	
18	
27	
24	
22	
15	
18	
15	
21	
26	
23	
22	
22	
22	
24	
15	
23	
20	
32	
21	
13	
17	
24	
13	
25	
15	
26	
19	
18	
22	
18	
14	
24	
16	
21	
27	
21	
17	
16	
13	
15	
18	
17	
22	
19	
15	
26	
11	
12	
14	
14	
22	
19	
10	
18	
17	
23	
16	
24	
20	
11	
15	
19	
23	
23	
20	
18	
14	
33	
17	
17	
19	
15	
19	
18	
21	
16	
11	
16	
16	
18	
19	
17	
24	
13	
18	
25	
24	
11	
12	
15	
17	
17	
26	
13	
20	
21	
18	
13	
21	
14	
28	
26	
21	
16	
16	
19	
17	
21	
19	
13	
20	
26	
22	
12	
16	
15	
14	
15	
23	
26	
21	
17	
18	
13	
16	
16	
20	
13	
19	
12	
19	
18	
15	
17	
13	
16	
18	
19	
13	
15	
22	
25	
16	
19	
21	
18	
26	
20	
16	
19	
14	
17	
24	
10	
15	
19	
20	
23	
12	
22	
21	
16	
20	
17	
21	
22	
21	
11	
14	
12	
19	
18	
20	
20	
17	
25	
14	
11	
15	
16	
19	
19	
16	
15	
23	
19	
14	
24	
24	
30	
17	
20	
18	
25	
14	
19	
24	
24	
19	
24	
19	
25	
18	
24	
26	
22	
17	
19	
12	
30	
20	
18	
15	
14	
16	
19	
18	
21	
17	
17	
18	
19	
21	
26	
22	
16	
20	
17	
27	
11	
12	
15	
16	
22	
14	
21	
27	
21	
12	
14	
23	
16	
15	
20	
17	
14	
13	
14	
14	
18	
17	
21	
18	
17	
22	
16	
22	
16	
8	
20	
22	
19	
12	
21	
14	
23	
24	
18	
21	
17	
15	
21	
15	
15	
24	
26	
14	
12	
14	
20	
22	
17	
20	
16	
11	
17	
20	
21	
20	
18	
18	
14	
17	
14	
21	
23	
13	
16	
19	
17	
13	
14	
23	
25	
16	
19	
35	
16	
20	
22	
19	
20	
11	
22	
16	
14	
13	
30	
14	
22	
10	
16	
16	
16	
17	
18	
23	
25	
21	
17	
21	
22	
15	
19	
13	
19	
18	
15	
19	
25	
28	
13	
12	
16	
32	
21	
16	
16	
17	
16	
22	
15	
18	
21	
23	
22	
15	
19	
23	
12	
22	
21	
15	
14	
15	
17	
23	
22	
13	
15	
14	
19	
24	
14	
24	
20	
17	
15	
19	
24	
15	
16	
16	
22	
18	
18	
20	
22	
22	
26	
15	
17	
22	
18	
14	
15	
16	
12	
19	
23	
20	
19	
16	
20	
25	
22	
14	
18	
19	
22	
22	
16	
15	
26	
21	
13	
20	
18	
20	
16	
21	
12	
18	
13	
13	
15	
9	
17	
15	
19	
16	
14	
19	
13	
23	
18	
23	
17	
24	
18	
13	
25	
22	
19	
22	
17	
26	
15	
23	
18	
19	
16	
18	
13	
24	
21	
17	
14	
16	
17	
19	
17	
22	
26	
15	
17	
23	
19	
19	
19	
19	
13	
17	
16	
21	
14	
16	
20	
16	
16	
13	
10	
16	
10	
11	
20	
15	
27	
23	
14	
15	
18	
17	
16	
17	
21	
13	
15	
15	
20	
14	
24	
20	
22	
20	
22	
9	
14	
20	
15	
15	
17	
15	
21	
15	
21	
18	
20	
16	
18	
20	
23	
22	
27	
11	
19	
23	
21	
19	
18	
29	
21	
12	
20	
20	
20	
11	
20	
13	
28	
18	
6	
17	
18	
21	
25	
17	
21	
19	
20	
15	
19	
15	
21	
13	
12	
19	
9	
11	
12	
14	
17	
22	
19	
16	
18	
14	
20	
16	
24	
25	
14	
12	
18	
23	
19	
24	
21	
25	
20	
24	
17	
14	
15	
13	
17	
18	
20	
15	
13	
19	
21	
22	
15	
16	
15	
18	
14	
19	
18	
12	
20	
21	
19	
25	
16	
24	
17	
19	
18	
20	
16	
14	
19	
14	
13	
18	
22	
19	
23	
14	
17	
27	
20	
9	
7	
17	
14	
14	
12	
16	
23	
10	
13	
18	
16	
15	
18	
12	
18	
17	
15	
14	
21	
12	
12	
17	
14	
9	
21	
19	
20	
12	
17	
15	
19	
13	
17	
23	
23	
12	
20	
11	
21	
14	
23	
19	
23	
14	
20	
23	
24	
14	
13	
20	
12	
9	
15	
21	
20	
15	
14	
20	
21	
15	
21	
20	
16	
17	
22	
14	
9	
8	
23	
20	
18	
18	
15	
12	
17	
13	
19	
26	
19	
11	
9	
13	
11	
11	
15	
19	
14	
23	
19	
12	
15	
14	
12	
13	
20	
22	
16	
15	
20	
17	
14	
15	
27	
15	
13	
16	
15	
22	
13	
19	
17	
19	
21	
12	
22	
27	
25	
19	
10	
28	
15	
15	
16	
13	
10	
10	
14	
16	
17	
19	
11	
12	
11	
13	
27	
17	
13	
21	
23	
16	
16	
22	
15	
17	
20	
13	
21	
12	
16	
11	
19	
13	
15	
12	
23	
18	
17	
10	
21	
26	
10	
12	
15	
15	
13	
11	
15	
19	
19	
22	
16	
20	
14	
11	
18	
13	
28	
22	
16	
8	
28	
7	
15	
16	
13	
14	
20	
17	
14	
16	
20	
19	
11	
21	
23	
14	
15	
10	
16	
27	
23	
15	
18	
21	
12	
20	
12	
19	
17	
10	
16	
16	
15	
24	
21	
15	
17	
15	
15	
13	
15	
19	
18	
20	
18	
18	
15	
19	
17	
28	
16	
18	
23	
14	
13	
16	
26	
16	
13	
16	
10	
16	
13	
17	
17	
20	
13	
19	
19	
15	
17	
20	
18	
16	
13	
17	
20	
15	
13	
13	
23	
15	
15	
15	
19	
19	
12	
17	
14	
11	
15	
18	
20	
25	
7	
13	
15	
19	
14	
8	
9	
18	
22	
18	
17	
16	
23	
13	
16	
13	
14	
17	
12	
12	
10	
22	
18	
27	
22	
22	
15	
7	
14	
21	
11	
14	
14	
14	
24	
20	
18	
16	
16	
13	
20	
15	
15	
12	
17	
19	
16	
18	
18	
17	
21	
15	
16	
10	
15	
17	
12	
25	
12	
13	
15	
14	
18	
15	
15	
17	
11	
23	
8	
17	
16	
12	
20	
17	
22	
20	
13	
13	
11	
12	
15	
18	
17	
26	
15	
20	
10	
18	
18	
18	
18	
12	
16	
13	
15	
15	
18	
14	
13	
17	
18	
17	
20	
9	
14	
17	
16	
15	
19	
18	
12	
13	
18	
22	
13	
22	
12	
18	
12	
13	
15	
21	
23	
16	
19	
11	
23	
12	
15	
15	
21	
15	
13	
14	
13	
19	
14	
14	
21	
19	
26	
13	
18	
12	
18	
21	
18	
15	
16	
18	
18	
19	
13	
19	
9	
23	
21	
16	
11	
16	
16	
12	
15	
14	
23	
18	
15	
16	
19	
12	
18	
14	
13	
23	
15	
20	
18	
20	
18	
16	
17	
15	
15	
18	
20	
18	
21	
14	
18	
18	
26	
22	
21	
12	
12	
19	
18	
14	
15	
9	
11	
18	
12	
21	
26	
16	
12	
13	
17	
13	
13	
16	
23	
17	
16	
13	
16	
15	
21	
13	
21	
18	
21	
20	
20	
17	
17	
19	
13	
15	
14	
18	
26	
16	
8	
8	
25	
13	
15	
12	
21	
19	
17	
14	
20	
11	
20	
18	
15	
19	
21	
18	
16	
17	
16	
16	
14	
11	
17	
9	
14	
26	
7	
21	
9	
17	
18	
19	
11	
23	
15	
18	
11	
20	
13	
17	
18	
14	
14	
12	
15	
18	
16	
17	
19	
14	
8	
13	
22	
12	
12	
12	
12	
17	
18	
9	
16	
14	
15	
19	
14	
14	
18	
32	
18	
19	
13	
19	
10	
19	
14	
18	
19	
12	
17	
13	
20	
13	
21	
21	
12	
17	
15	
16	
16	
18	
22	
20	
11	
10	
19	
20	
17	
19	
30	
11	
20	
7	
12	
13	
16	
22	
6	
14	
14	
23	
18	
23	
11	
20	
20	
10	
11	
16	
17	
11	
18	
17	
19	
22	
16	
13	
14	
14	
19	
20	
17	
15	
14	
19	
12	
16	
11	
9	
8	
21	
13	
17	
18	
17	
15	
20	
14	
14	
16	
18	
14	
15	
16	
19	
17	
12	
16	
15	
18	
16	
15	
17	
19	
15	
13	
17	
15	
14	
16	
13	
11	
19	
19	
17	
23	
14	
17	
23	
13	
16	
16	
19	
13	
19	
18	
10	
20	
14	
19	
18	
11	
15	
22	
16	
19	
18	
17	
24	
15	
23	
11	
19	
21	
17	
9	
12	
20	
17	
15	
23	
12	
18	
15	
17	
17	
19	
17	
16	
11	
11	
13	
13	
16	
12	
12	
10	
18	
9	
14	
21	
10	
12	
13	
14	
10	
21	
22	
15	
14	
18	
15	
17	
11	
19	
13	
18	
14	
15	
13	
23	
17	
14	
21	
10	
29	
16	
12	
17	
11	
14	
15	
12	
9	
19	
15	
19	
14	
24	
18	
15	
16	
18	
17	
15	
15	
21	
15	
9	
19	
13	
12	
18	
20	
16	
19	
15	
13	
12	
14	
14	
19	
16	
18	
14	
16	
19	
17	
14	
19	
23	
24	
17	
14	
18	
16	
13	
14	
14	
14	
20	
13	
12	
19	
11	
15	
11	
21	
20	
19	
18	
8	
10	
14	
17	
12	
14	
11	
24	
16	
14	
18	
16	
12	
19	
14	
14	
12	
17	
14	
17	
10	
15	
15	
18	
13	
26	
20	
18	
19	
8	
13	
17	
17	
12	
14	
12	
17	
19	
9	
10	
17	
19	
13	
16	
14	
8	
16	
17	
13	
11	
17	
15	
6	
14	
14	
12	
18	
14	
11	
10	
15	
16	
16	
10	
15	
17	
16	
18	
23	
14	
13	
21	
18	
20	
21	
17	
20	
16	
19	
14	
14	
13	
19	
20	
24	
15	
26	
15	
19	
20	
13	
16	
9	
14	
17	
17	
16	
15	
20	
22	
10	
14	
13	
16	
15	
12	
18	
14	
14	
13	
10	
15	
21	
13	
16	
12	
28	
14	
15	
12	
11	
13	
12	
22	
15	
23	
17	
19	
15	
14	
14	
17	
11	
8	
20	
15	
6	
14	
19	
16	
15	
13	
14	
18	
16	
11	
13	
14	
12	
19	
12	
11	
20	
20	
20	
11	
11	
18	
17	
16	
13	
19	
16	
19	
14	
16	
23	
19	
17	
15	
17	
21	
14	
12	
18	
12	
16	
10	
14	
12	
17	
15	
10	
16	
18	
17	
22	
19	
13	
15	
15	
14	
13	
9	
14	
14	
14	
6	
10	
20	
12	
16	
13	
16	
15	
13	
14	
11	
25	
14	
10	
12	
20	
18	
12	
10	
20	
12	
14	
15	
14	
13	
15	
15	
14	
14	
16	
15	
19	
11	
22	
9	
18	
19	
11	
17	
15	
15	
14	
19	
15	
13	
12	
11	
11	
17	
16	
17	
7	
13	
12	
18	
12	
11	
18	
19	
27	
20	
13	
9	
17	
18	
14	
19	
16	
12	
20	
15	
17	
21	
15	
10	
11	
13	
16	
17	
24	
20	
19	
14	
20	
6	
17	
9	
14	
8	
8	
16	
10	
9	
7	
15	
16	
18	
15	
19	
18	
14	
13	
8	
14	
14	
14	
24	
12	
16	
14	
7	
15	
13	
17	
20	
13	
10	
12	
10	
9	
16	
16	
6	
19	
18	
9	
15	
14	
11	
14	
14	
18	
13	
13	
15	
13	
12	
14	
12	
13	
14	
9	
17	
18	
